SpectraSuite Datei
++++++++++++++++++++++++++++++++++++
Datum: Mon Jun 06 14:41:07 CEST 2016
Benutzer: Admin
Dark-Spektrum vorhanden: Ja
Referenz-Spektrum vorhanden: Ja
Zahl der probierten Teilspektren: 1
Spektrometer: USB4H10187
Integrationszeit (usec): 200000 (USB4H10187)
Spektren Durchschnitt berechnet: 20 (USB4H10187)
Boxcar Glättung: 0 (USB4H10187)
Dunkelstromkorrektur: Nein (USB4H10187)
Puls/Lampe aktiviert: Nein (USB4H10187)
Correct for Detector Non-linearity: Nein (USB4H10187)
Streulichtkorrektur: Nein (USB4H10187)
Anzahl Pixel in verarbeitetem Spektrum: 3648
>>>>>Begin Processed Spectral Data<<<<<
176,80	22,73
177,02	22,73
177,24	22,73
177,46	24,78
177,68	20,38
177,91	85,20
178,13	65,02
178,35	62,46
178,57	68,20
178,79	59,49
179,02	63,69
179,24	52,74
179,46	59,49
179,68	62,05
179,90	70,14
180,12	71,17
180,35	55,09
180,57	64,20
180,79	108,85
181,01	98,51
181,23	106,90
181,46	98,92
181,68	102,71
181,90	110,39
182,12	110,39
182,34	87,96
182,56	98,00
182,79	73,32
183,01	121,96
183,23	106,70
183,45	98,40
183,67	111,31
183,89	107,72
184,12	96,15
184,34	111,31
184,56	117,35
184,78	103,01
185,00	115,71
185,22	105,78
185,45	121,85
185,67	94,41
185,89	117,76
186,11	91,85
186,33	106,29
186,55	119,40
186,77	86,32
187,00	125,75
187,22	122,16
187,44	119,09
187,66	111,72
187,88	96,66
188,10	130,25
188,32	126,36
188,55	112,74
188,77	107,11
188,99	125,95
189,21	108,34
189,43	121,55
189,65	107,42
189,87	115,30
190,10	95,84
190,32	108,34
190,54	109,98
190,76	106,08
190,98	122,16
191,20	83,56
191,42	137,11
191,64	104,04
191,87	99,84
192,09	117,45
192,31	110,08
192,53	111,31
192,75	132,50
192,97	110,69
193,19	90,93
193,41	118,78
193,64	124,52
193,86	122,06
194,08	110,28
194,30	100,04
194,52	108,44
194,74	98,20
194,96	124,31
195,18	104,55
195,40	112,23
195,63	108,24
195,85	100,96
196,07	93,59
196,29	126,87
196,51	134,45
196,73	119,70
196,95	107,62
197,17	109,26
197,39	107,72
197,61	127,18
197,84	128,00
198,06	124,62
198,28	142,03
198,50	125,95
198,72	123,80
198,94	120,52
199,16	121,65
199,38	137,32
199,60	128,31
199,82	123,70
200,04	127,59
200,26	108,64
200,49	113,56
200,71	128,20
200,93	119,09
201,15	116,32
201,37	121,65
201,59	117,76
201,81	112,54
202,03	133,73
202,25	83,97
202,47	119,70
202,69	95,74
202,91	103,42
203,13	123,49
203,35	98,61
203,58	113,25
203,80	134,35
204,02	97,79
204,24	118,88
204,46	132,20
204,68	111,31
204,90	103,12
205,12	107,72
205,34	144,59
205,56	117,96
205,78	129,64
206,00	141,41
206,22	119,70
206,44	124,93
206,66	118,07
206,88	144,59
207,10	121,55
207,32	124,41
207,54	109,36
207,76	128,92
207,99	83,66
208,21	130,66
208,43	107,93
208,65	115,20
208,87	128,71
209,09	121,65
209,31	125,13
209,53	103,93
209,75	132,50
209,97	120,42
210,19	121,14
210,41	131,79
210,63	127,69
210,85	119,70
211,07	108,75
211,29	119,29
211,51	117,76
211,73	149,30
211,95	138,95
212,17	123,70
212,39	112,43
212,61	151,04
212,83	122,06
213,05	130,35
213,27	131,48
213,49	123,29
213,71	102,50
213,93	106,39
214,15	131,68
214,37	121,85
214,59	134,35
214,81	117,86
215,03	102,91
215,25	113,66
215,47	130,15
215,69	132,09
215,91	134,65
216,13	122,88
216,35	132,50
216,57	126,77
216,79	110,39
217,01	150,42
217,23	103,52
217,45	108,85
217,67	138,44
217,89	140,08
218,11	138,65
218,33	127,18
218,55	133,53
218,77	128,82
218,99	100,96
219,21	144,48
219,43	120,63
219,65	117,76
219,87	153,39
220,09	147,04
220,31	141,31
220,53	143,15
220,75	126,46
220,97	145,82
221,19	134,04
221,41	131,17
221,63	123,08
221,85	113,76
222,06	119,70
222,28	115,71
222,50	161,99
222,72	118,99
222,94	145,00
223,16	139,36
223,38	104,65
223,60	120,22
223,82	119,91
224,04	142,64
224,26	128,61
224,48	120,22
224,70	144,38
224,92	145,71
225,14	136,29
225,36	150,63
225,58	100,76
225,80	147,86
226,02	124,52
226,24	137,32
226,45	130,97
226,67	122,47
226,89	146,53
227,11	147,97
227,33	144,59
227,55	154,21
227,77	126,15
227,99	145,61
228,21	147,25
228,43	133,73
228,65	125,95
228,87	116,53
229,09	121,85
229,31	157,28
229,52	170,29
229,74	155,54
229,96	116,22
230,18	113,05
230,40	152,27
230,62	133,94
230,84	150,94
231,06	132,61
231,28	144,48
231,50	134,35
231,72	135,27
231,94	154,83
232,15	154,11
232,37	136,39
232,59	127,18
232,81	164,96
233,03	162,51
233,25	140,90
233,47	153,19
233,69	134,86
233,91	140,39
234,13	127,28
234,34	142,54
234,56	135,47
234,78	120,11
235,00	131,79
235,22	136,09
235,44	130,25
235,66	143,26
235,88	156,98
236,10	152,98
236,31	145,51
236,53	131,68
236,75	156,57
236,97	166,50
237,19	148,58
237,41	139,77
237,63	153,90
237,85	111,72
238,07	146,63
238,28	146,33
238,50	150,63
238,72	158,92
238,94	133,02
239,16	144,18
239,38	159,64
239,60	144,79
239,81	149,19
240,03	152,06
240,25	136,09
240,47	159,13
240,69	154,31
240,91	130,97
241,13	155,54
241,34	145,51
241,56	140,18
241,78	140,70
242,00	178,07
242,22	140,90
242,44	162,30
242,66	137,52
242,87	128,20
243,09	141,92
243,31	125,23
243,53	140,39
243,75	165,07
243,97	139,57
244,19	146,22
244,40	158,31
244,62	168,04
244,84	156,46
245,06	157,39
245,28	139,88
245,50	185,65
245,71	134,86
245,93	148,58
246,15	160,97
246,37	162,40
246,59	165,89
246,81	113,15
247,02	149,30
247,24	163,33
247,46	155,85
247,68	169,06
247,90	160,56
248,11	150,83
248,33	156,16
248,55	146,12
248,77	143,15
248,99	170,08
249,21	130,46
249,42	154,11
249,64	161,58
249,86	161,89
250,08	127,18
250,30	153,70
250,51	142,13
250,73	144,79
250,95	147,35
251,17	161,99
251,39	152,06
251,60	155,75
251,82	148,58
252,04	144,89
252,26	149,91
252,48	124,62
252,69	139,36
252,91	149,91
253,13	150,42
253,35	159,43
253,57	141,21
253,78	140,49
254,00	142,33
254,22	145,82
254,44	160,66
254,65	167,22
254,87	151,24
255,09	165,27
255,31	170,80
255,53	146,12
255,74	136,50
255,96	173,36
256,18	163,33
256,40	162,51
256,61	156,87
256,83	190,26
257,05	145,61
257,27	147,35
257,48	163,02
257,70	149,50
257,92	100,56
258,14	173,97
258,36	168,86
258,57	141,62
258,79	164,25
259,01	175,72
259,23	141,51
259,44	152,47
259,66	170,90
259,88	150,63
260,10	165,17
260,31	169,06
260,53	146,43
260,75	144,89
260,97	124,11
261,18	161,99
261,40	159,43
261,62	153,60
261,84	142,74
262,05	154,11
262,27	171,21
262,49	167,93
262,71	182,68
262,92	139,77
263,14	143,56
263,36	148,27
263,57	144,69
263,79	166,81
264,01	176,43
264,23	165,07
264,44	172,13
264,66	165,07
264,88	171,11
265,10	169,78
265,31	182,99
265,53	147,86
265,75	174,59
265,96	150,83
266,18	171,31
266,40	173,46
266,62	185,34
266,83	166,30
267,05	170,19
267,27	181,96
267,48	156,46
267,70	163,63
267,92	177,46
268,14	164,96
268,35	161,48
268,57	180,94
268,79	165,17
269,00	177,87
269,22	165,99
269,44	171,01
269,65	148,68
269,87	158,82
270,09	167,42
270,31	160,05
270,52	181,55
270,74	145,00
270,96	148,38
271,17	152,27
271,39	182,17
271,61	166,50
271,82	163,63
272,04	157,69
272,26	161,89
272,47	197,32
272,69	155,13
272,91	165,37
273,12	200,80
273,34	170,39
273,56	171,82
273,77	143,26
273,99	162,51
274,21	185,14
274,42	153,70
274,64	183,09
274,86	152,57
275,08	185,96
275,29	161,79
275,51	149,50
275,72	172,44
275,94	180,22
276,16	159,54
276,37	174,38
276,59	171,93
276,81	172,13
277,02	163,02
277,24	162,51
277,46	179,40
277,67	189,44
277,89	163,22
278,11	167,73
278,32	180,73
278,54	168,96
278,76	194,45
278,97	193,74
279,19	158,82
279,41	175,92
279,62	190,67
279,84	189,33
280,05	158,62
280,27	161,38
280,49	186,77
280,70	178,17
280,92	175,92
281,14	183,50
281,35	180,73
281,57	184,73
281,79	164,45
282,00	203,77
282,22	164,55
282,43	181,96
282,65	167,93
282,87	186,77
283,08	176,84
283,30	178,79
283,52	182,06
283,73	186,26
283,95	195,99
284,16	181,65
284,38	181,14
284,60	164,14
284,81	177,35
285,03	161,58
285,24	170,90
285,46	174,38
285,68	177,76
285,89	179,40
286,11	181,65
286,32	180,12
286,54	195,17
286,76	186,88
286,97	183,19
287,19	179,81
287,40	199,57
287,62	184,93
287,84	192,10
288,05	188,62
288,27	170,60
288,48	164,45
288,70	184,62
288,92	192,41
289,13	167,42
289,35	193,43
289,56	187,70
289,78	184,21
289,99	193,12
290,21	199,88
290,43	183,19
290,64	182,99
290,86	173,67
291,07	181,76
291,29	177,25
291,51	206,33
291,72	213,40
291,94	167,63
292,15	187,29
292,37	171,21
292,58	179,71
292,80	211,66
293,01	181,25
293,23	178,58
293,45	186,77
293,66	195,79
293,88	211,66
294,09	171,62
294,31	198,24
294,52	190,46
294,74	203,06
294,96	199,88
295,17	169,57
295,39	176,94
295,60	183,70
295,82	152,16
296,03	180,73
296,25	180,84
296,46	185,14
296,68	181,55
296,89	181,86
297,11	186,57
297,32	187,39
297,54	176,84
297,76	195,99
297,97	186,98
298,19	194,76
298,40	154,21
298,62	177,56
298,83	180,73
299,05	199,06
299,26	182,17
299,48	189,54
299,69	204,08
299,91	181,14
300,12	159,74
300,34	189,13
300,55	177,87
300,77	226,81
300,98	186,67
301,20	193,12
301,41	182,99
301,63	187,08
301,84	200,70
302,06	209,40
302,28	196,09
302,49	194,76
302,71	186,57
302,92	177,97
303,14	190,36
303,35	195,58
303,57	203,88
303,78	201,11
304,00	192,20
304,21	196,91
304,43	204,59
304,64	220,87
304,86	191,28
305,07	189,03
305,29	222,31
305,50	202,54
305,71	233,16
305,93	191,49
306,14	227,22
306,36	192,71
306,57	227,43
306,79	178,89
307,00	183,40
307,22	192,92
307,43	179,71
307,65	220,67
307,86	216,06
308,08	185,85
308,29	216,37
308,51	183,40
308,72	196,40
308,94	183,19
309,15	210,02
309,37	200,91
309,58	201,42
309,80	211,25
310,01	201,42
310,22	188,11
310,44	191,69
310,65	194,05
310,87	219,85
311,08	195,99
311,30	201,01
311,51	220,16
311,73	191,89
311,94	183,91
312,16	204,80
312,37	205,41
312,58	224,15
312,80	225,69
313,01	207,46
313,23	222,51
313,44	223,33
313,66	209,71
313,87	226,10
314,09	210,12
314,30	236,75
314,51	243,50
314,73	218,83
314,94	197,63
315,16	195,17
315,37	203,88
315,59	218,83
315,80	208,79
316,01	228,66
316,23	207,77
316,44	210,12
316,66	225,38
316,87	241,66
317,09	232,14
317,30	232,34
317,51	225,79
317,73	256,00
317,94	218,42
318,16	242,07
318,37	227,32
318,58	230,60
318,80	271,15
319,01	255,89
319,23	254,15
319,44	237,56
319,66	244,73
319,87	257,02
320,08	257,02
320,30	256,92
320,51	245,96
320,73	286,61
320,94	312,93
321,15	252,82
321,37	285,79
321,58	283,75
321,80	298,08
322,01	283,03
322,22	297,88
322,44	317,74
322,65	301,05
322,86	317,03
323,08	309,76
323,29	309,24
323,51	346,41
323,72	364,33
323,93	359,52
324,15	385,73
324,36	372,42
324,58	373,14
324,79	415,02
325,00	419,12
325,22	425,06
325,43	472,57
325,64	451,78
325,86	483,63
326,07	493,15
326,28	525,10
326,50	543,53
326,71	554,18
326,93	563,91
327,14	545,37
327,35	586,44
327,57	602,21
327,78	606,20
327,99	637,53
328,21	661,19
328,42	685,46
328,63	720,17
328,85	769,63
329,06	792,46
329,27	870,90
329,49	872,74
329,70	931,42
329,91	909,81
330,13	945,75
330,34	977,09
330,56	1008,52
330,77	981,80
330,98	1043,75
331,20	1079,38
331,41	1096,69
331,62	1168,26
331,84	1182,60
332,05	1242,30
332,26	1288,68
332,48	1308,24
332,69	1364,36
332,90	1393,75
333,11	1409,62
333,33	1461,43
333,54	1497,78
333,75	1559,22
333,97	1613,29
334,18	1682,30
334,39	1785,73
334,61	1858,74
334,82	1896,52
335,03	1969,63
335,25	1963,39
335,46	1973,32
335,67	1970,66
335,89	1951,41
336,10	1969,22
336,31	1929,70
336,53	2025,54
336,74	2048,79
336,95	2112,07
337,16	2171,36
337,38	2233,21
337,59	2367,86
337,80	2379,74
338,02	2522,48
338,23	2554,33
338,44	2632,36
338,65	2703,22
338,87	2744,79
339,08	2823,33
339,29	2949,48
339,51	2984,81
339,72	3127,76
339,93	3229,54
340,14	3407,92
340,36	3444,48
340,57	3515,34
340,78	3656,85
341,00	3756,08
341,21	3916,74
341,42	4116,93
341,63	4274,73
341,85	4368,93
342,06	4671,93
342,27	4800,75
342,49	4948,81
342,70	5174,40
342,91	5278,13
343,12	5147,06
343,34	5118,18
343,55	4896,28
343,76	4764,91
343,97	4515,87
344,19	4499,49
344,40	4760,30
344,61	4866,08
344,82	5126,58
345,04	5279,46
345,25	5477,80
345,46	5479,95
345,67	5603,14
345,89	5687,00
346,10	5689,67
346,31	5941,77
346,52	6081,44
346,74	6069,77
346,95	6197,87
347,16	6320,54
347,37	6150,87
347,59	6230,33
347,80	6404,51
348,01	6643,51
348,22	6632,76
348,43	6818,51
348,65	6682,62
348,86	6702,28
349,07	6908,41
349,28	7012,14
349,50	7294,35
349,71	7717,16
349,92	7877,31
350,13	8316,60
350,34	8440,60
350,56	8521,50
350,77	8657,58
350,98	8527,74
351,19	8588,05
351,41	8810,05
351,62	8583,04
351,83	8507,06
352,04	8645,60
352,25	8461,39
352,47	8833,50
352,68	8927,40
352,89	9319,28
353,10	9760,00
353,31	10119,32
353,53	10625,58
353,74	10611,04
353,95	11029,85
354,16	11102,86
354,37	11390,29
354,59	11138,59
354,80	11410,57
355,01	11417,53
355,22	11291,99
355,43	11192,46
355,65	11031,79
355,86	10981,52
356,07	10788,29
356,28	10364,77
356,49	10179,74
356,70	9989,99
356,92	9573,13
357,13	9702,97
357,34	9468,78
357,55	9553,98
357,76	9043,52
357,98	8760,08
358,19	8666,08
358,40	8958,12
358,61	9428,75
358,82	10086,96
359,03	11137,06
359,25	12022,50
359,46	12989,04
359,67	12957,60
359,88	13048,33
360,09	12752,80
360,30	12387,86
360,51	12156,84
360,73	12125,00
360,94	11992,19
361,15	11958,50
361,36	11905,25
361,57	12136,57
361,78	12281,26
362,00	12692,70
362,21	13256,91
362,42	13654,22
362,63	13784,67
362,84	13960,80
363,05	13767,88
363,26	13946,36
363,48	13914,62
363,69	14234,10
363,90	14424,77
364,11	14610,41
364,32	14639,19
364,53	14663,05
364,74	15199,72
364,95	15636,24
365,17	16448,77
365,38	17286,19
365,59	17929,15
365,80	18202,14
366,01	18491,52
366,22	18693,86
366,43	18449,74
366,64	18253,24
366,86	18350,52
367,07	18380,83
367,28	17945,33
367,49	17632,70
367,70	17763,26
367,91	17402,20
368,12	17207,65
368,33	17303,19
368,54	17439,58
368,76	17863,00
368,97	18576,61
369,18	19396,93
369,39	19228,28
369,60	19661,63
369,81	19424,06
370,02	19098,95
370,23	18746,80
370,44	18499,20
370,65	18436,33
370,87	18745,77
371,08	19054,40
371,29	18992,35
371,50	18643,17
371,71	18307,82
371,92	17664,65
372,13	17557,75
372,34	17593,79
372,55	16922,57
372,76	16392,04
372,97	16129,29
373,18	15503,84
373,40	15360,38
373,61	15137,46
373,82	14985,09
374,03	14953,76
374,24	15287,06
374,45	15048,17
374,66	15618,22
374,87	15774,79
375,08	16520,55
375,29	17348,14
375,50	17586,93
375,71	18038,10
375,92	17578,13
376,13	17731,93
376,34	18159,13
376,56	18263,99
376,77	18697,85
376,98	19290,94
377,19	20034,25
377,40	21078,72
377,61	21825,20
377,82	21989,04
378,03	22131,07
378,24	21977,88
378,45	20995,57
378,66	20261,89
378,87	18955,18
379,08	18564,43
379,29	18531,15
379,50	18145,62
379,71	18112,85
379,92	19077,14
380,13	19545,20
380,34	19789,93
380,55	19764,23
380,76	19769,04
380,97	19706,58
381,18	18441,14
381,39	17393,50
381,60	16643,33
381,81	15437,79
382,02	14831,18
382,24	14035,04
382,45	12980,85
382,66	12606,48
382,87	12272,15
383,08	12067,04
383,29	12244,50
383,50	12648,46
383,71	13486,39
383,92	14396,50
384,13	15277,64
384,34	16379,55
384,55	17091,12
384,76	17787,22
384,97	17624,51
385,18	17510,75
385,39	17122,35
385,60	17081,90
385,81	17097,47
386,02	17111,29
386,23	17291,82
386,44	17928,23
386,65	17536,14
386,86	17484,64
387,07	17443,98
387,28	17644,79
387,49	17365,24
387,70	17570,86
387,91	17447,77
388,12	17457,09
388,32	17565,33
388,53	17868,53
388,74	18718,64
388,95	19530,45
389,16	20216,63
389,37	21046,36
389,58	21480,33
389,79	21876,91
390,00	22001,74
390,21	22251,28
390,42	22774,03
390,63	23071,08
390,84	23748,25
391,05	23789,41
391,26	23948,02
391,47	23117,16
391,68	22995,82
391,89	21243,38
392,10	20148,43
392,31	18101,69
392,52	16413,75
392,73	14269,53
392,94	12638,42
393,15	12131,35
393,36	11923,48
393,57	12656,24
393,78	14408,69
393,98	16391,53
394,19	17873,24
394,40	19283,78
394,61	20548,09
394,82	22575,78
395,03	23115,73
395,24	23074,57
395,45	22548,75
395,66	21470,90
395,87	19752,04
396,08	17927,00
396,29	15852,71
396,50	14644,51
396,71	13848,16
396,92	14429,48
397,12	16276,95
397,33	18154,22
397,54	20367,15
397,75	22985,79
397,96	24286,66
398,17	26009,20
398,38	27242,29
398,59	28385,56
398,80	28074,68
399,01	28909,13
399,22	30007,55
399,43	29555,06
399,63	29660,32
399,84	30907,43
400,05	30238,05
400,26	30236,21
400,47	31057,75
400,68	30942,35
400,89	31217,70
401,10	31816,32
401,31	31722,42
401,52	31766,25
401,72	32397,23
401,93	32012,72
402,14	32076,41
402,35	31609,48
402,56	31998,79
402,77	30555,59
402,98	30633,82
403,19	30904,97
403,40	30664,34
403,60	30840,67
403,81	30659,32
404,02	30365,74
404,23	30639,76
404,44	30291,10
404,65	30522,11
404,86	30358,78
405,07	30628,40
405,27	30040,94
405,48	30750,87
405,69	29499,15
405,90	29990,66
406,11	29394,29
406,32	29417,54
406,53	29999,98
406,74	29836,24
406,94	29273,56
407,15	30511,05
407,36	30093,36
407,57	30391,96
407,78	31063,08
407,99	31889,33
408,20	31549,88
408,40	32557,38
408,61	32875,74
408,82	32470,13
409,03	32547,34
409,24	31427,41
409,45	30497,43
409,65	29814,23
409,86	29395,83
410,07	29338,79
410,28	29548,09
410,49	30565,32
410,70	30695,06
410,90	32227,45
411,11	33251,23
411,32	33156,51
411,53	32958,17
411,74	33689,80
411,95	34189,61
412,15	33819,23
412,36	33349,02
412,57	32735,45
412,78	32900,00
412,99	32913,72
413,20	32620,35
413,40	32633,77
413,61	32834,98
413,82	34136,77
414,03	32449,25
414,24	32386,17
414,44	32243,22
414,65	32535,57
414,86	32764,33
415,07	32389,65
415,28	32806,31
415,48	32626,29
415,69	32466,24
415,90	33657,55
416,11	33572,45
416,32	32878,30
416,53	32485,29
416,73	32563,83
416,94	31969,10
417,15	32650,87
417,36	31784,78
417,56	30997,13
417,77	31022,02
417,98	31662,62
418,19	31298,08
418,40	31517,11
418,60	32022,86
418,81	31451,37
419,02	30935,28
419,23	32009,03
419,44	30300,31
419,64	30255,26
419,85	30569,11
420,06	30231,71
420,27	31628,73
420,47	31994,70
420,68	31779,25
420,89	32520,82
421,10	32884,54
421,30	32415,97
421,51	32545,09
421,72	31643,27
421,93	31446,15
422,14	29649,06
422,34	30106,27
422,55	30027,93
422,76	29759,34
422,97	30686,66
423,17	30786,40
423,38	30908,97
423,59	29920,62
423,80	30585,39
424,00	30507,26
424,21	30252,90
424,42	30576,38
424,63	30562,14
424,83	30126,34
425,04	30542,07
425,25	29601,55
425,46	30460,36
425,66	30027,22
425,87	30111,08
426,08	29230,04
426,28	30574,13
426,49	29047,57
426,70	29324,35
426,91	28764,03
427,11	28893,36
427,32	28414,85
427,53	28675,04
427,74	29136,66
427,94	29157,96
428,15	29004,77
428,36	28632,04
428,56	28682,11
428,77	28369,59
428,98	27442,17
429,19	26272,57
429,39	25404,85
429,60	24902,17
429,81	24031,38
430,01	22419,52
430,22	22085,09
430,43	22231,93
430,64	22470,62
430,84	23678,92
431,05	25670,16
431,26	27609,49
431,46	28911,07
431,67	29673,22
431,88	30976,14
432,08	30303,90
432,29	30771,45
432,50	30924,64
432,70	30635,15
432,91	30840,57
433,12	31084,79
433,33	30302,05
433,53	29426,03
433,74	29501,91
433,95	29351,49
434,15	28787,27
434,36	30187,78
434,57	30041,65
434,77	30670,07
434,98	31373,45
435,19	31488,75
435,39	32268,31
435,60	33078,07
435,81	34110,87
436,01	33707,01
436,22	34189,92
436,43	34252,58
436,63	34231,70
436,84	34091,51
437,05	33439,75
437,25	32272,71
437,46	31910,63
437,67	31590,74
437,87	30481,25
438,08	29946,42
438,29	30330,42
438,49	29720,22
438,70	29814,84
438,91	30931,80
439,11	32548,47
439,32	32460,00
439,52	31826,77
439,73	31209,51
439,94	31606,30
440,14	32190,69
440,35	32649,54
440,56	32223,46
440,76	32604,38
440,97	33876,58
441,18	34113,12
441,38	33739,77
441,59	34594,19
441,79	35155,02
442,00	35181,13
442,21	35035,93
442,41	35076,07
442,62	34105,64
442,83	34463,01
443,03	34427,38
443,24	34305,32
443,44	34856,22
443,65	35091,13
443,86	34118,85
444,06	34984,32
444,27	35018,22
444,48	35286,09
444,68	34579,03
444,89	34910,60
445,09	34867,59
445,30	32997,79
445,51	33313,39
445,71	32727,46
445,92	32987,86
446,12	33403,29
446,33	33482,24
446,54	33959,32
446,74	34944,70
446,95	34042,67
447,15	35437,03
447,36	35843,04
447,57	35311,18
447,77	35237,45
447,98	35236,63
448,18	34722,08
448,39	33972,42
448,59	35258,96
448,80	35225,47
449,01	35084,67
449,21	35125,63
449,42	35338,93
449,62	36242,70
449,83	36220,58
450,04	35853,99
450,24	37263,30
450,45	37127,32
450,65	37047,04
450,86	36521,22
451,06	37184,66
451,27	36677,38
451,47	35636,70
451,68	35749,24
451,89	35430,78
452,09	35145,19
452,30	33575,01
452,50	33238,43
452,71	33784,93
452,91	32877,48
453,12	33364,48
453,33	33466,27
453,53	33491,35
453,74	34735,50
453,94	34152,95
454,15	33390,49
454,35	33391,62
454,56	34114,35
454,76	34656,85
454,97	33628,36
455,17	34010,62
455,38	35016,68
455,58	34883,87
455,79	34741,03
456,00	35392,07
456,20	34998,35
456,41	35569,63
456,61	34309,42
456,82	34286,17
457,02	35856,76
457,23	35519,05
457,43	35510,86
457,64	34373,62
457,84	33929,42
458,05	34286,48
458,25	33946,93
458,46	34310,13
458,66	33851,29
458,87	34589,68
459,07	34624,60
459,28	34081,68
459,48	33860,40
459,69	34295,59
459,89	33949,28
460,10	34683,89
460,30	35781,80
460,51	34901,18
460,71	35466,11
460,92	35830,34
461,12	35682,68
461,33	36687,21
461,53	35752,21
461,74	35683,91
461,94	35696,30
462,15	36779,47
462,35	36841,83
462,56	36222,63
462,76	36385,85
462,97	36759,61
463,17	36313,87
463,38	36309,56
463,58	35420,44
463,79	36710,76
463,99	35803,00
464,20	35862,49
464,40	35704,59
464,61	35440,20
464,81	36235,22
465,02	35913,38
465,22	36278,74
465,43	36964,50
465,63	36365,68
465,83	36275,26
466,04	36886,17
466,24	36073,54
466,45	36735,64
466,65	35341,80
466,86	35784,57
467,06	36092,48
467,27	36226,83
467,47	37356,38
467,68	36602,83
467,88	37025,64
468,08	37255,01
468,29	37180,46
468,49	38054,95
468,70	38135,43
468,90	38360,71
469,11	38501,20
469,31	38393,07
469,52	37924,80
469,72	39712,98
469,92	37853,94
470,13	38290,67
470,33	38150,59
470,54	37776,73
470,74	38786,79
470,95	39393,29
471,15	40302,08
471,35	40905,62
471,56	41293,09
471,76	42088,73
471,97	42354,86
472,17	42202,70
472,38	42367,66
472,58	41994,11
472,78	42313,70
472,99	41854,54
473,19	42131,02
473,40	43081,28
473,60	42031,59
473,80	43573,40
474,01	44071,88
474,21	44317,43
474,42	44482,09
474,62	45033,91
474,83	44307,91
475,03	44989,98
475,23	44748,42
475,44	45089,10
475,64	45306,70
475,85	44783,04
476,05	44466,83
476,25	45618,09
476,46	45665,71
476,66	45779,68
476,86	46482,75
477,07	47250,43
477,27	48642,12
477,48	48652,06
477,68	48852,04
477,88	49517,12
478,09	48953,42
478,29	49322,26
478,50	49486,40
478,70	49425,58
478,90	49673,17
479,11	50402,46
479,31	51145,05
479,51	51534,57
479,72	50961,24
479,92	51327,42
480,12	51036,51
480,33	51545,22
480,53	51557,31
480,74	51860,30
480,94	52415,40
481,14	52795,51
481,35	53228,96
481,55	53252,10
481,75	53433,86
481,96	53407,75
482,16	53006,65
482,36	53454,54
482,57	53427,10
482,77	53010,44
482,97	53496,73
483,18	53417,37
483,38	53101,58
483,58	53390,14
483,79	53042,39
483,99	53208,99
484,19	53448,71
484,40	53395,56
484,60	52739,80
484,80	53140,69
485,01	52281,37
485,21	50452,12
485,41	48909,69
485,62	47797,54
485,82	46476,71
486,02	46432,67
486,23	46656,41
486,43	47571,04
486,63	48870,68
486,84	49811,21
487,04	50628,55
487,24	52044,93
487,45	52351,30
487,65	53734,30
487,85	53611,52
488,06	54119,01
488,26	53491,82
488,46	53734,09
488,67	53776,69
488,87	54062,07
489,07	55015,92
489,27	55650,99
489,48	56546,06
489,68	56368,09
489,88	57250,15
490,09	57148,36
490,29	56755,56
490,49	56926,26
490,70	56605,24
490,90	55980,92
491,10	55197,98
491,30	55347,79
491,51	54301,17
491,71	54369,68
491,91	53819,80
492,12	54512,93
492,32	54836,51
492,52	55632,97
492,72	55846,57
492,93	56112,19
493,13	55865,82
493,33	56236,40
493,53	56037,75
493,74	56482,26
493,94	57541,88
494,14	57338,82
494,34	58021,41
494,55	58166,00
494,75	58104,05
494,95	58052,75
495,16	57960,08
495,36	57620,93
495,56	57068,59
495,76	57362,38
495,97	57387,87
496,17	57625,74
496,37	57486,59
496,57	57964,58
496,78	58018,24
496,98	57732,65
497,18	57654,62
497,38	56961,69
497,59	56612,41
497,79	55371,34
497,99	55259,21
498,19	54623,12
498,39	55101,21
498,60	55272,53
498,80	55528,11
499,00	55330,18
499,20	55568,15
499,41	55548,59
499,61	54792,79
499,81	54532,08
500,01	54043,23
500,22	53531,04
500,42	52953,51
500,62	52534,39
500,82	52564,60
501,02	52106,47
501,23	51795,48
501,43	51684,38
501,63	51882,42
501,83	52092,13
502,03	51830,71
502,24	52935,90
502,44	52941,63
502,64	53413,79
502,84	53340,47
503,05	53249,13
503,25	53141,31
503,45	52680,82
503,65	52523,74
503,85	52125,21
504,06	52117,73
504,26	52406,39
504,46	53497,86
504,66	53361,36
504,86	54017,22
505,06	53921,48
505,27	54420,37
505,47	55115,14
505,67	54998,20
505,87	54917,72
506,07	54907,48
506,28	54568,43
506,48	54154,85
506,68	54092,49
506,88	53319,58
507,08	52921,46
507,28	52615,39
507,49	52654,81
507,69	52123,47
507,89	51778,28
508,09	52578,94
508,29	52517,70
508,49	52985,56
508,70	53371,60
508,90	53615,62
509,10	53218,93
509,30	52904,97
509,50	52898,73
509,70	52578,22
509,91	52346,29
510,11	52620,20
510,31	52566,75
510,51	52470,09
510,71	53104,14
510,91	53202,54
511,11	53580,49
511,32	53898,75
511,52	53494,17
511,72	53920,56
511,92	53513,01
512,12	53101,99
512,32	52391,55
512,52	52410,18
512,73	52506,54
512,93	52249,93
513,13	51884,57
513,33	52162,07
513,53	51832,45
513,73	51693,39
513,93	50995,65
514,13	51097,74
514,34	51489,62
514,54	51281,14
514,74	51800,60
514,94	52059,57
515,14	52123,88
515,34	52177,02
515,54	51924,20
515,74	51284,00
515,94	50006,17
516,15	49118,38
516,35	47347,81
516,55	46166,13
516,75	45559,01
516,95	45381,14
517,15	45601,30
517,35	45961,44
517,55	46437,08
517,75	47052,49
517,95	46659,69
518,16	46614,23
518,36	46820,15
518,56	47235,78
518,76	47879,56
518,96	48618,57
519,16	49105,89
519,36	49919,55
519,56	49795,03
519,76	50549,60
519,96	50468,71
520,16	50999,34
520,37	50771,09
520,57	50975,48
520,77	51093,85
520,97	51569,39
521,17	51786,17
521,37	52068,48
521,57	52095,72
521,77	52019,43
521,97	51617,21
522,17	51156,93
522,37	51176,49
522,57	50388,12
522,77	50787,88
522,97	51036,10
523,17	51264,45
523,37	51538,87
523,58	52004,17
523,78	52829,40
523,98	53096,35
524,18	52482,07
524,38	53109,87
524,58	52936,10
524,78	52459,23
524,98	52754,96
525,18	52210,20
525,38	51870,13
525,58	51298,75
525,78	50863,35
525,98	49591,87
526,18	48504,60
526,38	47467,51
526,58	46987,16
526,78	46570,50
526,98	46946,00
527,18	47267,63
527,38	48124,81
527,58	48662,91
527,78	49393,83
527,98	49815,00
528,18	50116,56
528,38	50634,59
528,58	51201,16
528,78	51505,59
528,98	51368,07
529,18	51384,46
529,38	51225,64
529,58	50640,23
529,78	50868,68
529,98	50480,59
530,18	51284,62
530,38	51228,91
530,58	51629,19
530,78	51914,16
530,98	51730,77
531,18	51803,88
531,38	51534,37
531,58	51189,70
531,78	50520,42
531,98	49773,12
532,18	49321,03
532,38	48958,54
532,58	48390,22
532,78	48381,01
532,98	49038,20
533,18	48962,32
533,38	49031,03
533,58	49757,24
533,78	49398,75
533,98	49299,63
534,18	49265,22
534,38	49381,75
534,58	49675,53
534,78	49765,13
534,98	50128,44
535,18	50469,53
535,38	50721,53
535,58	50420,89
535,78	50271,39
535,98	49809,67
536,18	49568,83
536,38	48479,82
536,58	48424,94
536,78	47543,29
536,98	47602,17
537,18	48126,86
537,38	47987,39
537,58	48042,07
537,78	48422,28
537,98	48266,63
538,17	48072,28
538,37	47912,33
538,57	47990,77
538,77	47360,30
538,97	47105,33
539,17	46945,89
539,37	46575,93
539,57	46079,09
539,77	45766,26
539,97	45402,55
540,17	45150,24
540,37	44834,34
540,57	44726,20
540,77	45005,96
540,97	45043,54
541,16	45195,80
541,36	45651,89
541,56	45623,52
541,76	45846,34
541,96	46085,95
542,16	45373,16
542,36	45731,76
542,56	45551,02
542,76	45472,18
542,96	45505,97
543,16	45314,38
543,36	45592,49
543,55	45759,61
543,75	46080,22
543,95	45999,84
544,15	45926,42
544,35	45494,81
544,55	45572,02
544,75	45414,42
544,95	45693,66
545,15	45074,05
545,35	45189,45
545,54	45163,04
545,74	45033,60
545,94	44647,56
546,14	44991,21
546,34	44817,34
546,54	44533,80
546,74	44365,35
546,94	44064,40
547,14	43829,71
547,33	43514,63
547,53	42998,64
547,73	43215,11
547,93	43212,76
548,13	43006,11
548,33	43307,88
548,53	43537,15
548,72	43178,04
548,92	43636,79
549,12	43550,26
549,32	43157,05
549,52	43174,87
549,72	43167,09
549,92	43098,17
550,12	42806,64
550,31	43190,94
550,51	42286,97
550,71	42692,67
550,91	42516,55
551,11	42392,13
551,31	42761,49
551,50	42493,41
551,70	42482,55
551,90	42787,90
552,10	42603,28
552,30	42222,36
552,50	41944,35
552,70	41937,89
552,89	41925,30
553,09	41956,53
553,29	41899,80
553,49	41870,82
553,69	42229,22
553,88	42047,87
554,08	42122,42
554,28	42070,91
554,48	42067,43
554,68	42125,59
554,88	42081,56
555,07	41867,34
555,27	41686,61
555,47	41594,96
555,67	41386,07
555,87	41305,07
556,06	40646,85
556,26	40581,73
556,46	40563,40
556,66	39923,61
556,86	39714,52
557,06	39686,05
557,25	39779,85
557,45	39553,03
557,65	39768,99
557,85	39654,92
558,05	39211,33
558,24	39060,29
558,44	38634,52
558,64	38435,05
558,84	38057,92
559,03	37906,37
559,23	38008,05
559,43	38031,60
559,63	38159,70
559,83	38151,61
560,02	38182,02
560,22	38723,71
560,42	39138,01
560,62	39077,29
560,82	38733,34
561,01	38688,59
561,21	38345,96
561,41	38311,66
561,61	38078,29
561,80	38090,68
562,00	38059,76
562,20	38145,98
562,40	38547,07
562,59	38354,67
562,79	38146,18
562,99	38287,80
563,19	38183,76
563,38	38004,16
563,58	38007,02
563,78	37976,71
563,98	37796,80
564,17	37699,32
564,37	37788,81
564,57	37845,03
564,77	37612,79
564,96	37474,35
565,16	37084,52
565,36	36966,76
565,56	36670,83
565,75	36505,04
565,95	36443,91
566,15	36617,68
566,35	36743,84
566,54	36763,19
566,74	37032,70
566,94	37101,21
567,14	37114,42
567,33	36994,61
567,53	36793,09
567,73	36601,91
567,92	36298,71
568,12	35994,18
568,32	35753,23
568,52	35519,87
568,71	35296,13
568,91	35592,67
569,11	35749,34
569,30	35304,93
569,50	35483,21
569,70	35310,16
569,90	34967,94
570,09	34991,39
570,29	34719,01
570,49	34512,37
570,68	34125,41
570,88	34020,75
571,08	34301,33
571,27	34292,62
571,47	34507,97
571,67	34812,40
571,87	35115,39
572,06	34922,17
572,26	35316,30
572,46	35211,14
572,65	35279,33
572,85	35147,55
573,05	35422,59
573,24	35093,58
573,44	34957,70
573,64	35039,11
573,83	35064,71
574,03	34707,95
574,23	34952,38
574,42	34566,74
574,62	34512,57
574,82	34371,78
575,01	34012,15
575,21	33927,98
575,41	34110,25
575,60	33745,00
575,80	33846,88
576,00	33921,53
576,19	34061,10
576,39	33670,76
576,59	34133,50
576,78	33974,47
576,98	33948,26
577,18	33987,17
577,37	33764,04
577,57	33576,04
577,77	33359,06
577,96	32923,86
578,16	32995,85
578,35	32893,14
578,55	32762,79
578,75	32936,97
578,94	32536,69
579,14	33119,03
579,34	33109,31
579,53	33016,12
579,73	33011,72
579,93	32948,34
580,12	33199,01
580,32	32855,67
580,51	32938,20
580,71	32909,32
580,91	32829,86
581,10	32917,00
581,30	32942,40
581,50	32987,55
581,69	32941,07
581,89	32830,78
582,08	33122,82
582,28	32858,23
582,48	33160,10
582,67	32894,58
582,87	32819,83
583,06	32852,39
583,26	32923,96
583,46	32791,87
583,65	32526,66
583,85	32832,01
584,04	32690,09
584,24	32308,86
584,44	32346,03
584,63	32233,90
584,83	31955,28
585,02	31635,18
585,22	31541,59
585,42	31296,03
585,61	30926,58
585,81	30978,09
586,00	31010,65
586,20	31049,36
586,39	30978,39
586,59	30843,84
586,79	31326,14
586,98	30752,09
587,18	30895,45
587,37	30753,12
587,57	30253,62
587,76	29966,90
587,96	29562,22
588,16	28807,85
588,35	28227,56
588,55	27239,73
588,74	26891,37
588,94	26152,97
589,13	26015,24
589,33	25843,62
589,52	25787,00
589,72	26095,12
589,92	26580,79
590,11	26957,00
590,31	27240,24
590,50	27590,75
590,70	27610,10
590,89	27703,39
591,09	27594,33
591,28	27497,77
591,48	27509,95
591,67	27382,26
591,87	27489,07
592,06	27360,96
592,26	27296,45
592,46	27474,52
592,65	27537,30
592,85	27457,42
593,04	27767,49
593,24	27475,55
593,43	27373,15
593,63	27370,39
593,82	27159,75
594,02	26693,12
594,21	26834,74
594,41	26457,20
594,60	26410,30
594,80	26424,94
594,99	26391,35
595,19	26558,57
595,38	26894,03
595,58	26764,90
595,77	26778,62
595,97	26952,80
596,16	26971,75
596,36	26807,81
596,55	26927,92
596,75	26817,33
596,94	26690,66
597,14	26644,07
597,33	26557,75
597,53	26516,18
597,72	26437,54
597,92	26354,18
598,11	26221,68
598,31	26221,68
598,50	26095,63
598,70	25977,66
598,89	26080,98
599,09	25815,16
599,28	26070,85
599,48	26030,40
599,67	25972,75
599,87	25803,08
600,06	25888,99
600,26	25647,12
600,45	25511,55
600,64	25591,11
600,84	25427,68
601,03	25505,40
601,23	25345,97
601,42	25195,95
601,62	25056,18
601,81	25105,43
602,01	24987,78
602,20	24978,05
602,40	25031,50
602,59	24892,34
602,78	25235,17
602,98	25059,56
603,17	25366,96
603,37	25224,83
603,56	25321,09
603,76	25234,25
603,95	25161,65
604,15	24934,74
604,34	25107,07
604,53	24833,87
604,73	24947,43
604,92	24819,95
605,12	24797,11
605,31	24646,89
605,51	24620,27
605,70	24426,12
605,89	24531,18
606,09	24308,88
606,28	24320,04
606,48	24351,58
606,67	24248,87
606,87	24274,68
607,06	24093,94
607,25	23942,19
607,45	23969,94
607,64	23730,22
607,84	23690,39
608,03	23465,83
608,22	23517,54
608,42	23441,05
608,61	23326,16
608,81	23210,14
609,00	23196,93
609,19	23102,11
609,39	22924,35
609,58	22965,72
609,78	22882,77
609,97	22679,62
610,16	22599,13
610,36	22569,95
610,55	22498,47
610,75	22534,72
610,94	22522,02
611,13	22564,21
611,33	22487,11
611,52	22490,38
611,71	22175,71
611,91	22242,27
612,10	22133,93
612,30	21909,17
612,49	22113,45
612,68	22036,86
612,88	21840,67
613,07	21734,89
613,26	21764,07
613,46	21558,05
613,65	21459,13
613,84	21493,94
614,04	21472,54
614,23	21448,38
614,43	21786,29
614,62	21564,70
614,81	21615,49
615,01	21572,18
615,20	21455,75
615,39	21288,74
615,59	21088,45
615,78	20907,92
615,97	20659,81
616,17	20694,72
616,36	20624,27
616,55	20743,57
616,75	20860,20
616,94	20772,75
617,13	20832,96
617,33	20974,58
617,52	21125,31
617,71	21062,54
617,91	21324,47
618,10	21160,74
618,29	21169,03
618,49	21221,36
618,68	21174,46
618,87	21024,65
619,07	21114,46
619,26	21172,82
619,45	21292,73
619,65	21216,65
619,84	21176,51
620,03	21287,20
620,22	21377,82
620,42	21158,69
620,61	21256,58
620,80	21209,07
621,00	21097,35
621,19	21046,16
621,38	20984,82
621,58	20953,38
621,77	20913,55
621,96	20883,44
622,15	20872,90
622,35	20689,40
622,54	20736,91
622,73	20854,47
622,93	20637,28
623,12	20554,34
623,31	20538,77
623,50	20472,93
623,70	20473,34
623,89	20306,22
624,08	20238,64
624,28	20308,37
624,47	20208,74
624,66	20036,40
624,85	20086,68
625,05	20003,02
625,24	19909,64
625,43	20124,47
625,62	19937,59
625,82	19969,74
626,01	20022,68
626,20	20214,37
626,39	20126,00
626,59	20212,73
626,78	20183,86
626,97	19981,11
627,17	19872,87
627,36	19756,24
627,55	19483,86
627,74	19490,21
627,93	19396,41
628,13	19301,70
628,32	19441,78
628,51	19446,18
628,70	19478,33
628,90	19417,82
629,09	19371,43
629,28	19354,23
629,47	19259,20
629,67	19088,71
629,86	19209,43
630,05	19149,22
630,24	19197,35
630,44	19110,21
630,63	19332,11
630,82	19162,33
631,01	19114,51
631,20	18876,23
631,40	18926,82
631,59	18847,66
631,78	18750,49
631,97	18822,57
632,16	18802,09
632,36	18979,76
632,55	19034,74
632,74	19014,06
632,93	18926,61
633,13	18873,06
633,32	18835,58
633,51	18721,92
633,70	18725,30
633,89	18652,69
634,09	18662,73
634,28	18689,35
634,47	18739,73
634,66	18691,71
634,85	18670,92
635,04	18737,17
635,24	18534,53
635,43	18522,44
635,62	18434,38
635,81	18295,84
636,00	18291,64
636,20	18296,04
636,39	18350,00
636,58	18272,69
636,77	18257,54
636,96	18346,73
637,15	18369,05
637,35	18291,33
637,54	18251,80
637,73	18239,31
637,92	18226,31
638,11	18236,75
638,30	18186,58
638,50	18120,43
638,69	18059,91
638,88	17912,35
639,07	17762,85
639,26	17856,96
639,45	17544,54
639,64	17570,34
639,84	17516,89
640,03	17302,37
640,22	17352,34
640,41	17279,22
640,60	17097,67
640,79	17122,55
640,98	17064,19
641,18	16973,77
641,37	16965,89
641,56	16847,41
641,75	16922,88
641,94	16779,21
642,13	16841,27
642,32	16718,70
642,52	16836,76
642,71	16879,87
642,90	16727,60
643,09	16605,85
643,28	16657,97
643,47	16463,93
643,66	16579,64
643,85	16414,06
644,04	16472,63
644,24	16346,17
644,43	16384,36
644,62	16251,14
644,81	16134,61
645,00	16055,87
645,19	16079,83
645,38	15817,79
645,57	15798,03
645,76	15682,94
645,96	15545,41
646,15	15472,30
646,34	15394,58
646,53	15203,30
646,72	15254,91
646,91	15062,20
647,10	14923,55
647,29	14922,63
647,48	14910,54
647,67	14690,59
647,86	14724,59
648,05	14733,80
648,25	14605,60
648,44	14535,77
648,63	14559,83
648,82	14351,86
649,01	14287,24
649,20	14191,09
649,39	14179,73
649,58	14175,02
649,77	14263,69
649,96	14400,39
650,15	14454,46
650,34	14504,12
650,53	14589,11
650,72	14492,35
650,91	14333,73
651,11	14339,67
651,30	14110,40
651,49	13997,35
651,68	13937,25
651,87	13902,53
652,06	13937,14
652,25	14003,91
652,44	14150,64
652,63	14104,57
652,82	14073,74
653,01	14091,36
653,20	13927,31
653,39	13910,73
653,58	13934,89
653,77	13816,83
653,96	13807,51
654,15	13685,04
654,34	13520,59
654,53	13510,55
654,72	13236,53
654,91	13186,56
655,10	12851,11
655,29	12563,37
655,48	12244,70
655,67	11857,23
655,86	11649,36
656,05	11262,29
656,24	11141,26
656,43	11177,92
656,62	11388,14
656,81	11602,66
657,00	11873,20
657,19	12029,05
657,38	12271,94
657,57	12415,40
657,76	12454,82
657,95	12599,72
658,14	12638,32
658,33	12608,63
658,52	12602,28
658,71	12643,24
658,90	12587,43
659,09	12646,41
659,28	12556,30
659,47	12607,71
659,66	12650,30
659,85	12632,08
660,04	12672,52
660,23	12677,23
660,42	12557,94
660,61	12681,23
660,80	12495,48
660,99	12570,94
661,18	12616,82
661,37	12646,21
661,56	12559,48
661,75	12622,25
661,94	12662,59
662,13	12592,04
662,32	12485,54
662,51	12434,24
662,70	12441,51
662,89	12346,38
663,08	12237,13
663,27	12211,22
663,46	12184,80
663,65	12181,32
663,83	12021,78
664,02	12122,03
664,21	12058,13
664,40	12137,80
664,59	12137,90
664,78	12068,58
664,97	12138,62
665,16	11969,76
665,35	11987,38
665,54	11901,67
665,73	11994,44
665,92	11887,33
666,11	11807,36
666,30	11815,24
666,49	11697,08
666,67	11680,69
666,86	11647,72
667,05	11584,23
667,24	11636,25
667,43	11563,34
667,62	11527,50
667,81	11415,69
668,00	11489,10
668,19	11341,24
668,38	11409,95
668,57	11441,80
668,76	11416,09
668,94	11339,60
669,13	11231,06
669,32	11319,74
669,51	11212,32
669,70	11201,06
669,89	11242,32
670,08	11066,51
670,27	11066,71
670,46	11100,40
670,64	11003,22
670,83	10931,65
671,02	10891,61
671,21	10868,88
671,40	10755,62
671,59	10743,13
671,78	10681,80
671,97	10687,84
672,16	10667,97
672,34	10698,79
672,53	10672,89
672,72	10624,35
672,91	10587,59
673,10	10586,67
673,29	10619,84
673,48	10583,39
673,66	10491,95
673,85	10523,39
674,04	10352,79
674,23	10366,31
674,42	10318,90
674,61	10367,94
674,80	10268,31
674,98	10261,55
675,17	10252,44
675,36	10189,98
675,55	10217,83
675,74	10263,40
675,93	10183,93
676,12	10231,75
676,30	10161,41
676,49	10147,79
676,68	10148,61
676,87	10065,97
677,06	10064,84
677,25	10061,57
677,43	10068,74
677,62	10039,96
677,81	9967,77
678,00	9921,49
678,19	9908,18
678,37	9917,29
678,56	9839,67
678,75	9996,85
678,94	9796,36
679,13	9854,62
679,32	9780,69
679,50	9736,45
679,69	9771,06
679,88	9662,83
680,07	9672,66
680,26	9619,51
680,44	9564,63
680,63	9591,97
680,82	9485,78
681,01	9599,55
681,20	9560,94
681,38	9520,09
681,57	9480,25
681,76	9425,98
681,95	9421,68
682,14	9392,50
682,32	9356,66
682,51	9345,50
682,70	9335,46
682,89	9306,17
683,07	9236,13
683,26	9167,63
683,45	9178,07
683,64	9114,38
683,83	9007,58
684,01	8990,69
684,20	8973,38
684,39	8947,58
684,58	8973,48
684,76	8930,07
684,95	8908,97
685,14	8893,20
685,33	8829,51
685,52	8767,56
685,70	8670,28
685,89	8503,88
686,08	8353,25
686,27	8050,16
686,45	7714,29
686,64	7329,99
686,83	7001,49
687,02	6738,94
687,20	6704,64
687,39	6680,06
687,58	6769,87
687,76	6947,43
687,95	7016,44
688,14	7239,98
688,33	7202,50
688,51	7278,48
688,70	7179,56
688,89	7164,41
689,08	7139,94
689,26	7103,58
689,45	7154,78
689,64	7183,86
689,83	7240,08
690,01	7205,27
690,20	7250,01
690,39	7353,03
690,57	7392,04
690,76	7410,78
690,95	7377,81
691,14	7405,25
691,32	7428,19
691,51	7425,53
691,70	7404,12
691,88	7435,46
692,07	7434,43
692,26	7337,87
692,44	7305,92
692,63	7259,84
692,82	7149,77
693,01	7084,54
693,19	7082,49
693,38	7015,83
693,57	6988,80
693,75	6950,09
693,94	6880,15
694,13	6864,79
694,31	6900,43
694,50	6872,78
694,69	6883,12
694,87	6901,96
695,06	6920,09
695,25	6958,08
695,43	6951,22
695,62	7008,46
695,81	7030,98
695,99	7071,84
696,18	7220,11
696,37	7249,60
696,55	7299,37
696,74	7295,07
696,93	7286,06
697,11	7320,77
697,30	7255,13
697,49	7264,96
697,67	7170,86
697,86	7161,13
698,05	7079,42
698,23	7038,05
698,42	7007,13
698,61	6934,42
698,79	6889,67
698,98	6794,34
699,17	6785,02
699,35	6730,65
699,54	6700,03
699,72	6690,92
699,91	6661,12
700,10	6599,48
700,28	6572,14
700,47	6525,44
700,66	6493,90
700,84	6485,61
701,03	6436,77
701,21	6488,48
701,40	6439,94
701,59	6390,17
701,77	6382,49
701,96	6395,91
702,15	6376,56
702,33	6423,35
702,52	6355,56
702,70	6403,79
702,89	6401,85
703,08	6452,84
703,26	6439,94
703,45	6462,98
703,63	6508,34
703,82	6489,81
704,01	6496,87
704,19	6471,68
704,38	6498,61
704,56	6474,96
704,75	6503,63
704,94	6418,54
705,12	6383,31
705,31	6362,01
705,49	6359,56
705,68	6295,15
705,86	6363,35
706,05	6350,75
706,24	6370,72
706,42	6313,99
706,61	6303,96
706,79	6313,68
706,98	6297,40
707,17	6318,19
707,35	6323,21
707,54	6278,46
707,72	6270,06
707,91	6106,33
708,09	6325,36
708,28	6220,30
708,46	6182,31
708,65	6172,48
708,84	6209,34
709,02	6145,95
709,21	6181,59
709,39	6187,12
709,58	6171,96
709,76	6219,89
709,95	6158,14
710,13	6156,19
710,32	6132,44
710,50	6199,71
710,69	6121,58
710,88	6087,18
711,06	6029,94
711,25	6088,20
711,43	6008,95
711,62	6047,34
711,80	5996,45
711,99	5957,75
712,17	5998,50
712,36	5986,21
712,54	5956,72
712,73	5942,49
712,91	5896,82
713,10	5890,67
713,28	5925,59
713,47	5860,26
713,65	5882,79
713,84	5812,34
714,02	5783,57
714,21	5760,01
714,39	5722,23
714,58	5698,88
714,76	5606,83
714,95	5605,50
715,13	5592,08
715,32	5534,53
715,50	5438,18
715,69	5458,86
715,87	5282,53
716,06	5200,20
716,24	5004,21
716,43	4796,65
716,61	4685,75
716,80	4487,00
716,98	4339,54
717,17	4217,07
717,35	4107,00
717,54	4008,69
717,72	3929,13
717,91	3879,26
718,09	3836,05
718,28	3739,08
718,46	3694,54
718,65	3658,29
718,83	3638,22
719,01	3558,35
719,20	3488,51
719,38	3506,94
719,57	3488,41
719,75	3486,36
719,94	3514,72
720,12	3518,92
720,31	3629,41
720,49	3689,52
720,68	3814,96
720,86	3973,57
721,04	4099,93
721,23	4211,34
721,41	4235,30
721,60	4335,04
721,78	4334,22
721,97	4395,15
722,15	4329,82
722,34	4301,04
722,52	4198,54
722,70	4178,47
722,89	4096,24
723,07	3918,38
723,26	3862,26
723,44	3756,49
723,63	3664,43
723,81	3649,17
723,99	3702,52
724,18	3600,74
724,36	3607,80
724,55	3597,46
724,73	3575,24
724,91	3572,27
725,10	3556,40
725,28	3559,47
725,47	3546,16
725,65	3524,14
725,83	3596,44
726,02	3546,26
726,20	3551,49
726,39	3568,38
726,57	3618,15
726,75	3571,25
726,94	3563,47
727,12	3552,82
727,31	3484,41
727,49	3494,86
727,67	3468,44
727,86	3490,97
728,04	3503,26
728,23	3553,74
728,41	3526,60
728,59	3538,48
728,78	3497,42
728,96	3488,51
729,14	3423,18
729,33	3461,48
729,51	3442,64
729,69	3487,69
729,88	3484,72
730,06	3498,44
730,25	3493,83
730,43	3485,95
730,61	3515,03
730,80	3494,14
730,98	3482,78
731,16	3536,64
731,35	3558,04
731,53	3562,03
731,71	3579,54
731,90	3670,06
732,08	3746,25
732,26	3774,10
732,45	3807,28
732,63	3865,03
732,81	3802,46
733,00	3879,67
733,18	3878,85
733,36	3920,73
733,55	3937,83
733,73	3963,74
733,91	3983,40
734,10	3972,55
734,28	4008,28
734,46	3969,89
734,65	3923,29
734,83	3913,67
735,01	3908,24
735,20	3879,77
735,38	3852,02
735,56	3844,86
735,75	3828,58
735,93	3795,71
736,11	3814,55
736,30	3795,40
736,48	3793,35
736,66	3786,08
736,84	3827,55
737,03	3812,40
737,21	3850,49
737,39	3834,51
737,58	3842,30
737,76	3783,32
737,94	3786,39
738,12	3775,74
738,31	3755,46
738,49	3747,17
738,67	3745,73
738,86	3657,67
739,04	3703,24
739,22	3730,99
739,40	3710,20
739,59	3755,57
739,77	3707,44
739,95	3740,21
740,14	3719,62
740,32	3749,83
740,50	3677,54
740,68	3703,55
740,87	3625,62
741,05	3673,75
741,23	3603,81
741,41	3653,88
741,60	3601,66
741,78	3671,91
741,96	3620,60
742,14	3663,20
742,33	3604,22
742,51	3643,95
742,69	3642,41
742,87	3633,81
743,06	3638,63
743,24	3667,09
743,42	3637,29
743,60	3647,94
743,79	3563,67
743,97	3593,67
744,15	3597,87
744,33	3564,39
744,52	3550,05
744,70	3519,54
744,88	3555,48
745,06	3531,52
745,24	3514,31
745,43	3566,13
745,61	3556,71
745,79	3490,15
745,97	3495,78
746,16	3503,87
746,34	3458,20
746,52	3520,77
746,70	3478,68
746,88	3471,51
747,07	3483,49
747,25	3471,10
747,43	3448,88
747,61	3402,50
747,79	3452,67
747,98	3378,12
748,16	3386,52
748,34	3394,41
748,52	3338,50
748,70	3361,02
748,89	3324,47
749,07	3324,47
749,25	3329,69
749,43	3326,93
749,61	3316,58
749,79	3365,94
749,98	3332,86
750,16	3331,23
750,34	3290,27
750,52	3300,30
750,70	3291,09
750,88	3323,65
751,07	3281,46
751,25	3307,37
751,43	3327,33
751,61	3265,18
751,79	3321,29
751,97	3315,87
752,16	3262,00
752,34	3305,83
752,52	3253,61
752,70	3284,74
752,88	3298,15
753,06	3275,11
753,25	3283,30
753,43	3249,92
753,61	3278,49
753,79	3291,60
753,97	3248,18
754,15	3273,88
754,33	3229,75
754,52	3278,39
754,70	3267,74
754,88	3252,07
755,06	3237,84
755,24	3315,46
755,42	3215,11
755,60	3279,51
755,78	3243,37
755,97	3233,33
756,15	3228,01
756,33	3216,23
756,51	3227,50
756,69	3260,78
756,87	3216,54
757,05	3231,69
757,23	3196,47
757,41	3226,17
757,60	3210,81
757,78	3219,82
757,96	3165,24
758,14	3162,99
758,32	3127,15
758,50	3053,73
758,68	2966,48
758,86	2795,17
759,04	2569,59
759,22	2386,19
759,41	2119,75
759,59	1836,41
759,77	1584,10
759,95	1340,29
760,13	1182,39
760,31	1090,44
760,49	1025,32
760,67	1016,82
760,85	1084,40
761,03	1178,50
761,21	1221,31
761,39	1344,29
761,57	1453,65
761,76	1528,40
761,94	1535,46
762,12	1519,29
762,30	1525,53
762,48	1454,37
762,66	1404,80
762,84	1388,42
763,02	1391,70
763,20	1402,35
763,38	1410,44
763,56	1412,18
763,74	1468,70
763,92	1552,26
764,10	1601,82
764,28	1677,80
764,46	1704,32
764,64	1753,78
764,82	1846,45
765,00	1892,32
765,19	1941,58
765,37	1997,08
765,55	2075,00
765,73	2097,84
765,91	2158,87
766,09	2209,66
766,27	2306,32
766,45	2340,42
766,63	2379,23
766,81	2446,40
766,99	2533,13
767,17	2537,84
767,35	2580,85
767,53	2626,42
767,71	2671,17
767,89	2693,80
768,07	2719,91
768,25	2713,87
768,43	2746,94
768,61	2772,34
768,79	2752,06
768,97	2799,16
769,15	2780,53
769,33	2802,03
769,51	2774,28
769,69	2802,03
769,87	2802,34
770,05	2825,48
770,23	2804,08
770,41	2869,82
770,59	2833,47
770,77	2818,21
770,95	2808,38
771,13	2798,96
771,31	2786,16
771,49	2810,53
771,67	2761,17
771,85	2776,23
772,03	2748,78
772,21	2789,85
772,38	2778,07
772,56	2773,05
772,74	2768,14
772,92	2707,11
773,10	2752,47
773,28	2715,30
773,46	2707,72
773,64	2729,33
773,82	2702,29
774,00	2688,06
774,18	2673,32
774,36	2683,97
774,54	2641,27
774,72	2651,91
774,90	2620,68
775,08	2646,18
775,26	2610,03
775,44	2630,62
775,62	2602,25
775,80	2613,72
775,97	2571,33
776,15	2633,18
776,33	2575,12
776,51	2550,03
776,69	2525,15
776,87	2548,90
777,05	2544,91
777,23	2536,20
777,41	2497,19
777,59	2481,73
777,77	2463,60
777,95	2475,58
778,13	2454,39
778,30	2462,07
778,48	2440,87
778,66	2461,97
778,84	2431,04
779,02	2440,97
779,20	2434,32
779,38	2422,13
779,56	2388,96
779,74	2388,03
779,92	2377,79
780,09	2326,29
780,27	2352,71
780,45	2370,22
780,63	2324,03
780,81	2342,77
780,99	2274,58
781,17	2325,16
781,35	2306,63
781,52	2309,60
781,70	2258,50
781,88	2266,28
782,06	2250,31
782,24	2258,91
782,42	2214,47
782,60	2237,30
782,78	2195,52
782,95	2213,65
783,13	2157,13
783,31	2176,07
783,49	2175,76
783,67	2152,01
783,85	2139,82
784,03	2116,68
784,20	2117,19
784,38	2135,31
784,56	2081,97
784,74	2119,03
784,92	2105,82
785,10	2055,34
785,28	2082,07
785,45	2049,71
785,63	2018,48
785,81	2025,34
785,99	2047,97
786,17	2039,47
786,35	2008,75
786,52	1979,16
786,70	1987,14
786,88	1978,24
787,06	1926,63
787,24	1966,36
787,41	1929,60
787,59	1949,26
787,77	1925,19
787,95	1874,20
788,13	1890,38
788,31	1878,70
788,48	1885,56
788,66	1861,30
788,84	1816,34
789,02	1899,18
789,20	1796,27
789,37	1819,31
789,55	1785,52
789,73	1811,22
789,91	1754,80
790,09	1811,94
790,26	1784,50
790,44	1786,34
790,62	1757,77
790,80	1772,21
790,98	1759,72
791,15	1763,61
791,33	1767,40
791,51	1781,63
791,69	1751,73
791,86	1739,54
792,04	1702,58
792,22	1734,63
792,40	1685,68
792,58	1706,98
792,75	1717,22
792,93	1685,99
793,11	1702,58
793,29	1712,31
793,46	1712,31
793,64	1728,08
793,82	1693,77
794,00	1665,82
794,17	1713,43
794,35	1678,82
794,53	1634,48
794,71	1697,56
794,88	1669,09
795,06	1670,63
795,24	1651,28
795,42	1647,90
795,59	1595,78
795,77	1595,06
795,95	1603,56
796,13	1608,68
796,30	1591,99
796,48	1557,69
796,66	1594,75
796,83	1602,64
797,01	1580,62
797,19	1622,40
797,37	1589,74
797,54	1593,93
797,72	1579,91
797,90	1568,23
798,08	1545,91
798,25	1565,16
798,43	1533,93
798,61	1560,65
798,78	1563,83
798,96	1530,75
799,14	1529,01
799,31	1508,74
799,49	1496,96
799,67	1445,05
799,85	1436,04
800,02	1497,17
800,20	1461,43
800,38	1438,90
800,55	1415,56
800,73	1428,97
800,91	1426,41
801,08	1399,38
801,26	1409,31
801,44	1427,33
801,61	1420,68
801,79	1406,75
801,97	1390,98
802,15	1398,15
802,32	1374,29
802,50	1387,81
802,68	1372,96
802,85	1389,65
803,03	1360,77
803,21	1368,86
803,38	1358,72
803,56	1335,48
803,74	1349,30
803,91	1349,30
804,09	1317,56
804,26	1326,16
804,44	1314,49
804,62	1323,81
804,79	1311,72
804,97	1320,94
805,15	1314,28
805,32	1328,21
805,50	1325,24
805,68	1342,85
805,85	1360,57
806,03	1320,12
806,21	1315,92
806,38	1289,50
806,56	1318,99
806,73	1286,53
806,91	1288,99
807,09	1276,50
807,26	1269,33
807,44	1265,75
807,62	1262,37
807,79	1254,48
807,97	1250,18
808,14	1269,33
808,32	1224,99
808,50	1210,55
808,67	1225,71
808,85	1210,86
809,02	1217,62
809,20	1176,25
809,38	1163,86
809,55	1158,02
809,73	1162,63
809,90	1164,78
810,08	1185,06
810,26	1155,36
810,43	1133,76
810,61	1132,53
810,78	1146,56
810,96	1113,69
811,14	1083,07
811,31	1112,25
811,49	1095,25
811,66	1093,92
811,84	1060,64
812,02	1036,07
812,19	1046,41
812,37	1026,75
812,54	1038,12
812,72	1010,88
812,89	939,20
813,07	986,51
813,25	991,11
813,42	948,00
813,60	919,23
813,77	923,94
813,95	895,47
814,12	884,52
814,30	857,79
814,47	868,44
814,65	848,37
814,83	861,99
815,00	840,69
815,18	827,69
815,35	778,43
815,53	818,27
815,70	775,26
815,88	760,82
816,05	784,37
816,23	754,78
816,40	755,50
816,58	755,09
816,75	770,96
816,93	734,50
817,10	757,54
817,28	739,93
817,46	777,00
817,63	751,30
817,81	735,53
817,98	750,68
818,16	755,19
818,33	768,30
818,51	750,68
818,68	781,30
818,86	736,86
819,03	752,22
819,21	761,54
819,38	752,83
819,56	752,42
819,73	773,82
819,91	826,87
820,08	793,69
820,26	820,93
820,43	817,86
820,61	859,23
820,78	815,91
820,96	800,35
821,13	831,58
821,31	861,07
821,48	806,08
821,66	798,71
821,83	769,11
822,00	760,10
822,18	709,62
822,35	672,25
822,53	647,77
822,70	686,27
822,88	642,55
823,05	657,09
823,23	649,21
823,40	686,58
823,58	692,11
823,75	690,88
823,93	700,20
824,10	725,90
824,28	735,12
824,45	763,99
824,62	730,41
824,80	765,94
824,97	773,21
825,15	772,29
825,32	726,82
825,50	758,98
825,67	753,55
825,85	753,75
826,02	769,01
826,19	749,66
826,37	765,74
826,54	767,07
826,72	719,04
826,89	729,38
827,07	708,19
827,24	702,86
827,41	693,65
827,59	696,62
827,76	690,78
827,94	685,56
828,11	687,20
828,28	688,12
828,46	688,32
828,63	660,27
828,81	667,02
828,98	657,81
829,15	696,51
829,33	676,24
829,50	636,51
829,68	637,53
829,85	680,44
830,02	636,92
830,20	678,08
830,37	677,78
830,55	675,32
830,72	692,01
830,89	649,72
831,07	680,23
831,24	648,59
831,42	662,72
831,59	655,55
831,76	667,84
831,94	631,29
832,11	652,38
832,28	657,19
832,46	656,17
832,63	646,65
832,81	654,63
832,98	629,03
833,15	641,94
833,33	641,73
833,50	633,85
833,67	645,11
833,85	640,40
834,02	623,40
834,19	633,44
834,37	655,86
834,54	677,06
834,71	651,66
834,89	667,64
835,06	628,93
835,23	649,92
835,41	652,79
835,58	644,91
835,75	619,82
835,93	627,70
836,10	677,26
836,27	654,63
836,45	646,95
836,62	647,06
836,79	677,26
836,97	632,72
837,14	649,51
837,31	642,35
837,49	651,87
837,66	648,80
837,83	645,83
838,01	637,33
838,18	628,52
838,35	648,69
838,53	646,44
838,70	638,76
838,87	657,50
839,04	649,82
839,22	636,61
839,39	670,20
839,56	616,85
839,74	636,00
839,91	641,94
840,08	629,44
840,26	611,32
840,43	652,69
840,60	618,18
840,77	611,32
840,95	645,93
841,12	592,68
841,29	618,28
841,46	628,52
841,64	621,56
841,81	603,64
841,98	628,11
842,16	617,67
842,33	618,28
842,50	625,76
842,67	608,25
842,85	595,45
843,02	611,11
843,19	622,07
843,36	616,95
843,54	587,36
843,71	596,47
843,88	593,19
844,05	596,68
844,23	578,55
844,40	595,04
844,57	607,73
844,74	600,57
844,92	604,77
845,09	574,56
845,26	572,00
845,43	555,00
845,61	590,02
845,78	607,02
845,95	574,25
846,12	591,66
846,29	578,14
846,47	611,42
846,64	581,42
846,81	560,73
846,98	570,97
847,16	553,57
847,33	577,63
847,50	551,93
847,67	567,18
847,84	569,13
848,02	558,38
848,19	558,69
848,36	530,83
848,53	558,89
848,70	550,39
848,88	570,77
849,05	513,32
849,22	504,72
849,39	523,87
849,56	519,06
849,74	506,77
849,91	541,79
850,08	523,15
850,25	490,18
850,42	502,67
850,60	508,31
850,77	485,57
850,94	511,17
851,11	519,26
851,28	516,19
851,45	532,06
851,63	528,58
851,80	504,01
851,97	485,27
852,14	493,87
852,31	503,08
852,48	491,72
852,66	488,65
852,83	493,97
853,00	485,68
853,17	484,04
853,34	481,58
853,51	448,91
853,68	444,82
853,86	432,63
854,03	418,91
854,20	411,95
854,37	417,79
854,54	442,26
854,71	443,28
854,88	442,16
855,06	446,76
855,23	424,95
855,40	449,43
855,57	436,52
855,74	458,64
855,91	426,49
856,08	440,93
856,25	450,55
856,43	424,13
856,60	448,30
856,77	425,67
856,94	432,74
857,11	470,52
857,28	479,33
857,45	438,47
857,62	438,27
857,79	422,29
857,97	407,03
858,14	425,88
858,31	414,61
858,48	420,24
858,65	423,93
858,82	417,99
858,99	441,54
859,16	422,60
859,33	428,95
859,50	476,46
859,67	418,91
859,85	410,82
860,02	415,23
860,19	401,09
860,36	419,94
860,53	419,12
860,70	445,84
860,87	407,75
861,04	424,85
861,21	395,46
861,38	418,71
861,55	400,99
861,72	420,45
861,89	413,79
862,06	403,65
862,23	397,61
862,41	413,89
862,58	406,93
862,75	417,58
862,92	396,08
863,09	410,62
863,26	383,38
863,43	373,75
863,60	391,57
863,77	369,56
863,94	392,29
864,11	405,29
864,28	375,90
864,45	369,04
864,62	386,96
864,79	404,17
864,96	396,59
865,13	378,36
865,30	409,90
865,47	394,13
865,64	376,62
865,81	344,06
865,98	353,27
866,15	340,37
866,32	336,69
866,49	350,51
866,66	332,59
866,83	334,33
867,00	320,81
867,17	354,30
867,34	326,34
867,51	357,98
867,68	343,14
867,85	364,74
868,02	328,39
868,19	320,61
868,36	359,01
868,53	365,66
868,70	330,03
868,87	366,18
869,04	355,73
869,21	330,54
869,38	333,92
869,55	328,08
869,72	346,62
869,89	343,75
870,06	328,80
870,23	332,79
870,40	353,79
870,57	335,15
870,74	321,63
870,91	331,26
871,08	311,50
871,25	332,79
871,42	340,27
871,59	318,66
871,76	306,48
871,93	347,03
872,10	302,08
872,27	338,84
872,44	308,83
872,60	319,69
872,77	305,76
872,94	323,89
873,11	320,92
873,28	312,01
873,45	288,66
873,62	275,35
873,79	300,23
873,96	312,72
874,13	289,58
874,30	310,06
874,47	300,44
874,64	287,23
874,81	302,38
874,97	312,11
875,14	322,45
875,31	312,01
875,48	289,17
875,65	291,02
875,82	297,77
875,99	296,96
876,16	298,70
876,33	302,18
876,50	282,31
876,67	308,53
876,83	275,86
877,00	260,40
877,17	302,08
877,34	290,81
877,51	278,32
877,68	275,14
877,85	276,48
878,02	285,18
878,19	272,28
878,35	275,14
878,52	271,66
878,69	284,77
878,86	268,80
879,03	268,69
879,20	289,99
879,37	295,01
879,54	264,80
879,70	275,14
879,87	248,73
880,04	266,34
880,21	239,20
880,38	265,83
880,55	247,50
880,72	253,03
880,89	252,92
881,05	270,74
881,22	240,12
881,39	256,20
881,56	269,62
881,73	251,08
881,90	278,93
882,06	239,51
882,23	233,26
882,40	220,46
882,57	245,24
882,74	248,62
882,91	259,48
883,07	247,29
883,24	246,47
883,41	238,38
883,58	234,29
883,75	236,64
883,92	250,06
884,08	237,67
884,25	241,46
884,42	227,02
884,59	247,70
884,76	263,88
884,92	231,73
885,09	271,77
885,26	233,16
885,43	216,78
885,60	237,46
885,76	231,42
885,93	230,19
886,10	216,78
886,27	218,42
886,44	229,47
886,60	222,61
886,77	216,78
886,94	185,44
887,11	211,25
887,28	220,57
887,44	231,63
887,61	218,72
887,78	206,44
887,95	204,28
888,12	223,23
888,28	195,27
888,45	237,97
888,62	226,91
888,79	186,77
888,95	191,49
889,12	201,62
889,29	199,68
889,46	204,49
889,62	215,55
889,79	239,82
889,96	212,27
890,13	212,68
890,29	208,28
890,46	222,82
890,63	200,80
890,80	188,21
890,96	193,74
891,13	201,11
891,30	206,23
891,47	183,50
891,63	208,59
891,80	192,20
891,97	208,79
892,14	185,55
892,30	217,90
892,47	175,31
892,64	195,68
892,80	225,89
892,97	177,15
893,14	200,80
893,31	187,90
893,47	182,06
893,64	200,09
893,81	185,44
893,97	176,84
894,14	203,16
>>>>>End Processed Spectral Data<<<<<
