SpectraSuite Datei
++++++++++++++++++++++++++++++++++++
Datum: Mon Jun 06 14:27:43 CEST 2016
Benutzer: Admin
Dark-Spektrum vorhanden: Ja
Referenz-Spektrum vorhanden: Ja
Zahl der probierten Teilspektren: 1
Spektrometer: USB4H10187
Integrationszeit (usec): 200000 (USB4H10187)
Spektren Durchschnitt berechnet: 20 (USB4H10187)
Boxcar Glättung: 0 (USB4H10187)
Dunkelstromkorrektur: Nein (USB4H10187)
Puls/Lampe aktiviert: Nein (USB4H10187)
Correct for Detector Non-linearity: Nein (USB4H10187)
Streulichtkorrektur: Nein (USB4H10187)
Anzahl Pixel in verarbeitetem Spektrum: 3648
>>>>>Begin Processed Spectral Data<<<<<
176,80	3,48
177,02	3,48
177,24	3,48
177,46	-1,64
177,68	7,58
177,91	9,22
178,13	-15,87
178,35	12,19
178,57	7,58
178,79	-0,41
179,02	0,00
179,24	-9,32
179,46	18,74
179,68	37,58
179,90	10,75
180,12	23,76
180,35	-16,18
180,57	20,99
180,79	42,80
181,01	71,99
181,23	23,24
181,46	39,53
181,68	60,72
181,90	85,50
182,12	57,75
182,34	44,65
182,56	45,67
182,79	22,73
183,01	43,62
183,23	30,31
183,45	47,41
183,67	60,62
183,89	24,78
184,12	49,66
184,34	47,21
184,56	74,24
184,78	68,20
185,00	48,74
185,22	32,97
185,45	52,63
185,67	54,99
185,89	61,64
186,11	47,00
186,33	44,85
186,55	55,09
186,77	30,21
187,00	80,28
187,22	60,72
187,44	61,23
187,66	66,87
187,88	49,66
188,10	54,07
188,32	59,19
188,55	66,25
188,77	60,01
188,99	68,20
189,21	52,22
189,43	58,26
189,65	67,58
189,87	57,55
190,10	62,26
190,32	47,72
190,54	57,34
190,76	61,34
190,98	76,90
191,20	41,88
191,42	71,58
191,64	48,02
191,87	51,51
192,09	35,74
192,31	52,02
192,53	52,43
192,75	59,60
192,97	47,41
193,19	60,62
193,41	64,00
193,64	66,76
193,86	49,97
194,08	65,02
194,30	40,04
194,52	43,83
194,74	45,36
194,96	56,83
195,18	60,01
195,40	48,84
195,63	41,47
195,85	57,86
196,07	50,99
196,29	60,42
196,51	51,92
196,73	40,86
196,95	54,78
197,17	57,65
197,39	59,29
197,61	55,60
197,84	64,82
198,06	61,44
198,28	52,63
198,50	69,02
198,72	66,87
198,94	56,01
199,16	54,07
199,38	64,82
199,60	52,12
199,82	59,80
200,04	62,98
200,26	62,36
200,49	64,10
200,71	72,60
200,93	71,47
201,15	81,10
201,37	62,77
201,59	65,84
201,81	73,01
202,03	53,04
202,25	26,21
202,47	73,83
202,69	54,17
202,91	58,98
203,13	79,36
203,35	49,66
203,58	58,47
203,80	67,48
204,02	67,07
204,24	73,93
204,46	68,40
204,68	61,64
204,90	52,84
205,12	61,23
205,34	76,59
205,56	75,67
205,78	71,17
206,00	84,27
206,22	68,61
206,44	67,99
206,66	64,20
206,88	86,83
207,10	55,81
207,32	71,37
207,54	63,08
207,76	75,37
207,99	57,24
208,21	66,35
208,43	62,87
208,65	71,58
208,87	72,29
209,09	82,84
209,31	83,25
209,53	60,82
209,75	70,25
209,97	69,94
210,19	54,58
210,41	58,16
210,63	92,36
210,85	46,69
211,07	65,74
211,29	67,58
211,51	104,86
211,73	93,18
211,95	56,42
212,17	80,18
212,39	74,85
212,61	77,52
212,83	69,32
213,05	77,21
213,27	81,20
213,49	89,09
213,71	72,60
213,93	77,72
214,15	75,16
214,37	78,85
214,59	67,38
214,81	64,00
215,03	66,25
215,25	79,67
215,47	79,97
215,69	59,49
215,91	95,23
216,13	58,67
216,35	80,59
216,57	89,29
216,79	73,11
217,01	87,45
217,23	53,86
217,45	55,09
217,67	90,73
217,89	95,74
218,11	70,86
218,33	70,86
218,55	83,76
218,77	88,78
218,99	97,89
219,21	77,31
219,43	97,28
219,65	67,17
219,87	89,60
220,09	107,31
220,31	70,65
220,53	91,24
220,75	76,49
220,97	81,92
221,19	74,44
221,41	85,91
221,63	98,10
221,85	71,17
222,06	56,01
222,28	78,13
222,50	83,15
222,72	68,91
222,94	93,18
223,16	97,48
223,38	52,74
223,60	79,97
223,82	55,60
224,04	93,08
224,26	84,89
224,48	83,15
224,70	82,43
224,92	69,12
225,14	89,09
225,36	80,49
225,58	75,26
225,80	106,60
226,02	81,61
226,24	102,81
226,45	76,08
226,67	75,26
226,89	105,57
227,11	78,95
227,33	108,85
227,55	89,29
227,77	81,41
227,99	76,90
228,21	107,83
228,43	92,88
228,65	84,48
228,87	84,48
229,09	76,08
229,31	101,99
229,52	89,09
229,74	86,73
229,96	66,15
230,18	62,98
230,40	99,43
230,62	96,25
230,84	86,83
231,06	87,76
231,28	79,97
231,50	89,80
231,72	93,90
231,94	106,70
232,15	92,67
232,37	93,18
232,59	91,75
232,81	98,10
233,03	99,74
233,25	89,39
233,47	91,03
233,69	97,28
233,91	107,01
234,13	73,73
234,34	96,15
234,56	75,16
234,78	88,57
235,00	96,97
235,22	69,73
235,44	81,51
235,66	96,46
235,88	107,93
236,10	95,54
236,31	90,11
236,53	68,30
236,75	97,38
236,97	110,39
237,19	106,49
237,41	96,77
237,63	108,95
237,85	100,04
238,07	104,24
238,28	85,71
238,50	102,30
238,72	94,82
238,94	85,30
239,16	89,80
239,38	104,65
239,60	106,90
239,81	95,13
240,03	90,42
240,25	103,32
240,47	131,27
240,69	104,34
240,91	77,21
241,13	89,50
241,34	95,23
241,56	74,85
241,78	94,31
242,00	121,34
242,22	104,04
242,44	104,24
242,66	96,77
242,87	85,81
243,09	100,35
243,31	107,42
243,53	79,46
243,75	117,55
243,97	86,12
244,19	89,50
244,40	94,31
244,62	107,21
244,84	112,13
245,06	107,83
245,28	106,60
245,50	96,46
245,71	88,78
245,93	92,36
246,15	131,58
246,37	102,71
246,59	96,15
246,81	86,32
247,02	92,98
247,24	94,62
247,46	103,32
247,68	135,17
247,90	76,39
248,11	93,80
248,33	85,40
248,55	104,45
248,77	104,34
248,99	129,43
249,21	96,36
249,42	101,37
249,64	98,10
249,86	85,91
250,08	99,74
250,30	100,86
250,51	92,36
250,73	124,82
250,95	93,39
251,17	123,19
251,39	114,48
251,60	121,96
251,82	80,38
252,04	105,57
252,26	105,78
252,48	95,44
252,69	103,12
252,91	97,07
253,13	100,86
253,35	112,95
253,57	98,40
253,78	104,45
254,00	103,01
254,22	110,59
254,44	113,76
254,65	127,28
254,87	112,64
255,09	118,27
255,31	139,16
255,53	117,04
255,74	102,40
255,96	134,86
256,18	115,40
256,40	95,84
256,61	118,88
256,83	135,99
257,05	92,06
257,27	113,36
257,48	133,63
257,70	121,96
257,92	111,41
258,14	113,25
258,36	128,10
258,57	85,09
258,79	134,45
259,01	109,46
259,23	101,58
259,44	111,61
259,66	129,23
259,88	88,06
260,10	118,88
260,31	131,79
260,53	111,82
260,75	109,46
260,97	97,48
261,18	120,83
261,40	99,02
261,62	107,11
261,84	135,17
262,05	113,97
262,27	125,13
262,49	102,81
262,71	114,89
262,92	110,80
263,14	115,51
263,36	90,01
263,57	142,54
263,79	138,65
264,01	148,17
264,23	139,98
264,44	122,47
264,66	136,39
264,88	110,18
265,10	133,02
265,31	158,00
265,53	118,27
265,75	153,39
265,96	126,26
266,18	118,99
266,40	130,87
266,62	162,30
266,83	116,32
267,05	128,00
267,27	156,16
267,48	125,44
267,70	141,82
267,92	128,61
268,14	130,97
268,35	121,96
268,57	129,64
268,79	129,53
269,00	123,19
269,22	142,85
269,44	132,20
269,65	122,47
269,87	126,46
270,09	145,30
270,31	125,44
270,52	126,46
270,74	118,78
270,96	108,64
271,17	122,16
271,39	144,18
271,61	121,03
271,82	135,78
272,04	129,12
272,26	136,80
272,47	142,95
272,69	132,50
272,91	125,34
273,12	131,38
273,34	142,95
273,56	112,23
273,77	128,51
273,99	125,13
274,21	139,06
274,42	134,55
274,64	143,15
274,86	116,22
275,08	139,26
275,29	126,97
275,51	141,92
275,72	114,99
275,94	146,02
276,16	139,88
276,37	109,57
276,59	130,56
276,81	133,73
277,02	137,21
277,24	128,61
277,46	139,47
277,67	137,62
277,89	118,99
278,11	145,00
278,32	141,92
278,54	146,22
278,76	155,95
278,97	126,56
279,19	120,42
279,41	164,45
279,62	144,48
279,84	139,47
280,05	136,80
280,27	146,43
280,49	151,34
280,70	127,59
280,92	151,45
281,14	128,51
281,35	136,91
281,57	128,92
281,79	134,65
282,00	155,65
282,22	154,83
282,43	158,00
282,65	128,31
282,87	159,02
283,08	155,75
283,30	149,50
283,52	161,89
283,73	148,99
283,95	165,17
284,16	138,34
284,38	158,00
284,60	144,28
284,81	150,73
285,03	140,59
285,24	147,04
285,46	150,01
285,68	132,09
285,89	147,76
286,11	149,40
286,32	152,37
286,54	161,38
286,76	134,86
286,97	147,15
287,19	144,79
287,40	178,79
287,62	142,23
287,84	152,37
288,05	167,83
288,27	146,12
288,48	140,08
288,70	174,08
288,92	160,77
289,13	137,42
289,35	160,77
289,56	169,37
289,78	182,06
289,99	171,41
290,21	159,84
290,43	165,89
290,64	157,80
290,86	163,12
291,07	147,25
291,29	148,48
291,51	163,22
291,72	186,88
291,94	163,22
292,15	163,84
292,37	131,58
292,58	171,82
292,80	173,87
293,01	167,22
293,23	169,88
293,45	173,36
293,66	165,78
293,88	166,91
294,09	182,27
294,31	186,67
294,52	175,51
294,74	176,23
294,96	186,67
295,17	169,78
295,39	177,35
295,60	183,91
295,82	155,03
296,03	174,49
296,25	187,59
296,46	190,87
296,68	198,96
296,89	177,15
297,11	216,78
297,32	203,77
297,54	201,52
297,76	211,25
297,97	210,02
298,19	219,85
298,40	249,85
298,62	235,93
298,83	231,32
299,05	253,44
299,26	262,96
299,48	271,97
299,69	291,02
299,91	287,23
300,12	283,64
300,34	316,92
300,55	312,01
300,77	371,71
300,98	399,87
301,20	417,27
301,41	415,02
301,63	461,00
301,84	472,57
302,06	499,29
302,28	560,32
302,49	639,58
302,71	701,43
302,92	763,07
303,14	817,75
303,35	891,17
303,57	923,74
303,78	960,29
304,00	990,50
304,21	1031,15
304,43	1130,58
304,64	1270,25
304,86	1316,84
305,07	1405,93
305,29	1451,50
305,50	1468,50
305,71	1484,47
305,93	1507,82
306,14	1607,76
306,36	1723,78
306,57	1832,32
306,79	1954,17
307,00	2120,77
307,22	2253,18
307,43	2378,82
307,65	2506,82
307,86	2637,58
308,08	2632,87
308,29	2675,36
308,51	2712,23
308,72	2667,89
308,94	2661,23
309,15	2698,92
309,37	2697,28
309,58	2816,16
309,80	2958,70
310,01	3291,90
310,22	3599,41
310,44	4013,81
310,65	4331,04
310,87	4661,38
311,08	4746,99
311,30	4798,19
311,51	4828,50
311,73	4782,83
311,94	4826,14
312,16	5016,09
312,37	5133,75
312,58	5340,08
312,80	5355,75
313,01	5653,32
313,23	5747,11
313,44	5939,01
313,66	5958,46
313,87	6071,92
314,09	6253,17
314,30	6233,61
314,51	6358,33
314,73	6421,61
314,94	6402,46
315,16	6380,45
315,37	6331,50
315,59	6210,77
315,80	6149,64
316,01	6278,05
316,23	6704,64
316,44	7238,14
316,66	7709,99
316,87	8257,72
317,09	8512,79
317,30	8580,48
317,51	8496,10
317,73	8199,04
317,94	8058,96
318,16	8147,23
318,37	8275,02
318,58	8481,66
318,80	8628,60
319,01	8844,05
319,23	8895,05
319,44	9231,01
319,66	9416,05
319,87	9986,00
320,08	10381,26
320,30	10491,33
320,51	10694,70
320,73	10560,66
320,94	10046,52
321,15	10027,78
321,37	9958,25
321,58	10023,17
321,80	9883,50
322,01	9806,80
322,22	9883,80
322,44	9491,31
322,65	9599,03
322,86	9604,15
323,08	9719,76
323,29	9916,26
323,51	10445,26
323,72	10965,44
323,93	11289,84
324,15	11575,02
324,36	11998,43
324,58	11891,53
324,79	12328,26
325,00	12432,50
325,22	13012,69
325,43	13663,74
325,64	14310,90
325,86	14965,43
326,07	15214,77
326,28	15496,57
326,50	15568,76
326,71	15781,75
326,93	15605,83
327,14	15183,85
327,35	15388,03
327,57	15012,74
327,78	14732,98
327,99	14580,10
328,21	14668,78
328,42	15160,81
328,63	15456,22
328,85	16221,76
329,06	16761,29
329,27	17668,34
329,49	17634,55
329,70	17968,06
329,91	17618,37
330,13	17240,82
330,34	16596,84
330,56	16298,66
330,77	16073,59
330,98	16219,50
331,20	16055,15
331,41	16192,67
331,62	16626,54
331,84	16443,04
332,05	16386,31
332,26	16438,74
332,48	16397,88
332,69	16471,51
332,90	16078,60
333,11	15968,52
333,33	16054,03
333,54	16127,45
333,75	16108,91
333,97	16274,39
334,18	16525,88
334,39	16864,10
334,61	17311,48
334,82	17227,10
335,03	17491,19
335,25	17078,73
335,46	16507,55
335,67	16029,45
335,89	15366,63
336,10	14871,02
336,31	14480,16
336,53	14618,91
336,74	14499,00
336,95	14456,30
337,16	14657,41
337,38	14825,96
337,59	15355,16
337,80	15295,56
338,02	15589,04
338,23	15498,41
338,44	15712,32
338,65	15750,11
338,87	15624,36
339,08	15559,03
339,29	15971,49
339,51	15845,13
339,72	16131,24
339,93	16263,23
340,14	16612,00
340,36	16739,07
340,57	16829,18
340,78	16959,43
341,00	17363,29
341,21	17894,95
341,42	18439,81
341,63	19091,98
341,85	19321,46
342,06	20314,31
342,27	20596,63
342,49	20801,22
342,70	21340,04
342,91	21125,51
343,12	20308,27
343,34	19470,45
343,55	18101,48
343,76	17136,99
343,97	15806,63
344,19	15545,41
344,40	16095,29
344,61	16330,81
344,82	17066,54
345,04	17420,23
345,25	17675,30
345,46	17474,70
345,67	17653,18
345,89	17674,58
346,10	17360,43
346,31	17869,45
346,52	18116,54
346,74	17913,07
346,95	17961,20
347,16	18003,69
347,37	17193,62
347,59	17140,17
347,80	17378,04
348,01	17759,58
348,22	17525,70
348,43	17883,78
348,65	17126,75
348,86	16983,29
349,07	17370,05
349,28	17504,30
349,50	17997,65
349,71	18945,04
349,92	19162,74
350,13	19979,68
350,34	20075,21
350,56	19994,63
350,77	19996,26
350,98	19471,37
351,19	19276,10
351,41	19651,08
351,62	18873,47
351,83	18467,05
352,04	18548,04
352,25	18037,28
352,47	18601,70
352,68	18562,58
352,89	19354,64
353,10	20160,31
353,31	20748,48
353,53	21599,62
353,74	21305,53
353,95	22103,73
354,16	21956,38
354,37	22268,59
354,59	21711,13
354,80	21920,13
355,01	21753,11
355,22	21254,74
355,43	20899,93
355,65	20343,60
355,86	20024,12
356,07	19405,73
356,28	18562,38
356,49	18003,39
356,70	17496,00
356,92	16643,64
357,13	16777,78
357,34	16332,86
357,55	16314,12
357,76	15298,12
357,98	14739,64
358,19	14555,02
358,40	14929,59
358,61	15639,93
358,82	16811,16
359,03	18462,44
359,25	19784,20
359,46	21241,43
359,67	20868,29
359,88	20803,27
360,09	20139,21
360,30	19388,02
360,51	18937,57
360,73	18601,80
360,94	18341,81
361,15	18146,23
361,36	18009,73
361,57	18279,35
361,78	18420,66
362,00	19209,95
362,21	19786,45
362,42	20395,11
362,63	20404,42
362,84	20594,48
363,05	20313,90
363,26	20312,68
363,48	20226,87
363,69	20661,96
363,90	20721,14
364,11	20825,28
364,32	20755,55
364,53	20598,16
364,74	21271,43
364,95	21792,03
365,17	22795,94
365,38	23869,49
365,59	24654,68
365,80	24982,25
366,01	25216,54
366,22	25325,08
366,43	25067,75
366,64	24685,19
366,86	24680,48
367,07	24721,75
367,28	24128,35
367,49	23588,81
367,70	23676,36
367,91	23104,77
368,12	22766,96
368,33	22784,88
368,54	22819,29
368,76	23389,44
368,97	24105,31
369,18	25130,21
369,39	24792,50
369,60	25172,51
369,81	24693,28
370,02	24243,75
370,23	23691,31
370,44	23264,62
370,65	23244,04
370,87	23597,62
371,08	23932,56
371,29	23936,86
371,50	23477,40
371,71	22990,29
371,92	21993,65
372,13	21895,55
372,34	21882,55
372,55	21057,73
372,76	20300,39
372,97	19906,77
373,18	18980,88
373,40	18751,20
373,61	18512,72
373,82	18310,48
374,03	18179,51
374,24	18602,01
374,45	18237,88
374,66	18929,38
374,87	19074,58
375,08	20096,51
375,29	21164,02
375,50	21424,11
375,71	21961,90
375,92	21324,58
376,13	21510,02
376,34	22056,83
376,56	22176,84
376,77	22578,45
376,98	23424,26
377,19	24466,57
377,40	25602,37
377,61	26548,64
377,82	26546,08
378,03	26636,19
378,24	26317,52
378,45	25041,23
378,66	23997,59
378,87	22417,58
379,08	21808,51
379,29	21710,72
379,50	21238,56
379,71	21309,32
379,92	22521,51
380,13	23071,49
380,34	23393,84
380,55	23387,70
380,76	23238,10
380,97	23001,15
381,18	21431,58
381,39	20235,67
381,60	19290,84
381,81	17843,64
382,02	17102,89
382,24	16170,97
382,45	14987,85
382,66	14472,48
382,87	14141,84
383,08	13786,00
383,29	14065,76
383,50	14491,94
383,71	15409,84
383,92	16524,96
384,13	17432,92
384,34	18709,22
384,55	19366,92
384,76	20107,26
384,97	19844,92
385,18	19685,59
385,39	19169,81
385,60	19058,29
385,81	18987,33
386,02	19107,14
386,23	19389,45
386,44	20051,25
386,65	19581,24
386,86	19452,53
387,07	19351,05
387,28	19602,75
387,49	19226,74
387,70	19483,76
387,91	19167,86
388,12	19179,23
388,32	19292,48
388,53	19602,75
388,74	20396,34
388,95	21358,68
389,16	22096,87
389,37	22953,12
389,58	23324,01
389,79	23700,53
390,00	23671,65
390,21	23952,84
390,42	24556,78
390,63	24815,85
390,84	25681,53
391,05	25542,98
391,26	25700,57
391,47	24822,61
391,68	24405,85
391,89	22555,92
392,10	21300,82
392,31	19051,74
392,52	17135,46
392,73	14817,87
392,94	13090,10
393,15	12612,01
393,36	12517,49
393,57	13399,96
393,78	15372,46
393,98	17587,75
394,19	19142,06
394,40	20500,58
394,61	21685,22
394,82	23749,06
395,03	24223,78
395,24	24001,78
395,45	23305,37
395,66	22139,87
395,87	20200,24
396,08	18232,45
396,29	15948,97
396,50	14846,24
396,71	14146,86
396,92	14961,44
397,12	17071,66
397,33	19227,97
397,54	21640,89
397,75	24372,98
397,96	25715,11
398,17	27427,11
398,38	28556,36
398,59	29665,65
398,80	29305,20
399,01	29993,94
399,22	31077,00
399,43	30522,41
399,63	30566,96
399,84	31733,89
400,05	30864,94
400,26	30974,09
400,47	31745,77
400,68	31566,06
400,89	31827,99
401,10	32472,18
401,31	32397,74
401,52	32498,19
401,72	33010,49
401,93	32722,44
402,14	32843,38
402,35	32324,11
402,56	32690,29
402,77	31306,17
402,98	31389,73
403,19	31562,17
403,40	31355,73
403,60	31595,24
403,81	31331,87
404,02	31046,39
404,23	31296,65
404,44	30865,04
404,65	30936,51
404,86	30803,29
405,07	31024,88
405,27	30405,07
405,48	30984,44
405,69	29733,84
405,90	30140,06
406,11	29565,71
406,32	29542,15
406,53	30288,95
406,74	30102,68
406,94	29583,93
407,15	30758,75
407,36	30396,26
407,57	30780,77
407,78	31577,12
407,99	32457,44
408,20	32126,08
408,40	33153,34
408,61	33443,94
408,82	32978,95
409,03	33027,49
409,24	31685,35
409,45	30834,32
409,65	30142,72
409,86	29744,60
410,07	29613,53
410,28	29881,60
410,49	30938,15
410,70	31117,76
410,90	32657,01
411,11	33655,81
411,32	33478,96
411,53	33176,38
411,74	33777,66
411,95	34331,12
412,15	33869,20
412,36	33405,65
412,57	32750,09
412,78	32904,61
412,99	33091,08
413,20	32783,27
413,40	32755,52
413,61	33155,28
413,82	34374,13
414,03	32796,48
414,24	32637,86
414,44	32594,04
414,65	32934,72
414,86	33028,92
415,07	32665,00
415,28	33077,97
415,48	32901,54
415,69	32864,37
415,90	34033,25
416,11	33816,16
416,32	33126,41
416,53	32668,28
416,73	32758,49
416,94	31939,51
417,15	32704,52
417,36	31741,98
417,56	30888,39
417,77	31107,11
417,98	31780,58
418,19	31262,14
418,40	31558,28
418,60	32062,69
418,81	31534,93
419,02	31211,25
419,23	32137,85
419,44	30475,11
419,64	30325,81
419,85	30759,47
420,06	30408,75
420,27	31884,11
420,47	32300,26
420,68	32178,30
420,89	32885,67
421,10	33127,84
421,30	32589,43
421,51	32570,90
421,72	31789,19
421,93	31401,50
422,14	29690,63
422,34	30071,86
422,55	29918,26
422,76	29792,72
422,97	30698,54
423,17	30808,82
423,38	30959,04
423,59	29919,49
423,80	30451,35
424,00	30420,73
424,21	30211,64
424,42	30475,11
424,63	30511,46
424,83	30031,11
425,04	30493,23
425,25	29664,32
425,46	30462,51
425,66	29993,73
425,87	30236,62
426,08	29239,67
426,28	30761,92
426,49	29230,35
426,70	29469,25
426,91	28650,88
427,11	28974,35
427,32	28529,43
427,53	28780,72
427,74	29327,32
427,94	29196,15
428,15	28963,71
428,36	28626,92
428,56	28503,53
428,77	28168,79
428,98	27235,73
429,19	25946,84
429,39	25073,90
429,60	24561,80
429,81	23559,93
430,01	22025,70
430,22	21632,49
430,43	22004,71
430,64	22355,63
430,84	23793,10
431,05	25897,28
431,26	27981,29
431,46	29323,23
431,67	29934,44
431,88	31210,84
432,08	30396,87
432,29	30842,10
432,50	30922,59
432,70	30668,95
432,91	30833,09
433,12	31163,22
433,33	30297,34
433,53	29400,84
433,74	29396,75
433,95	29249,09
434,15	28778,57
434,36	30306,25
434,57	30105,86
434,77	30683,49
434,98	31308,22
435,19	31420,45
435,39	32244,14
435,60	32927,14
435,81	33993,72
436,01	33684,58
436,22	34106,36
436,43	34030,58
436,63	34092,84
436,84	33780,53
437,05	33195,22
437,25	31940,84
437,46	31681,26
437,67	31334,64
437,87	30310,55
438,08	29669,13
438,29	30203,34
438,49	29749,72
438,70	29829,38
438,91	31052,94
439,11	32710,77
439,32	32483,86
439,52	31933,06
439,73	31210,74
439,94	31621,76
440,14	32225,10
440,35	32604,38
440,56	32091,67
440,76	32537,72
440,97	33732,61
441,18	34040,93
441,38	33600,92
441,59	34370,55
441,79	34920,63
442,00	34887,66
442,21	34670,68
442,41	34708,87
442,62	33693,69
442,83	34112,71
443,03	33987,17
443,24	33898,29
443,44	34458,41
443,65	34727,30
443,86	33857,74
444,06	34703,96
444,27	34723,41
444,48	34970,81
444,68	34344,95
444,89	34642,11
445,09	34531,31
445,30	32670,73
445,51	32950,90
445,71	32464,40
445,92	32819,72
446,12	33248,47
446,33	33397,46
446,54	33776,02
446,74	34816,70
446,95	33759,43
447,15	35299,51
447,36	35641,21
447,57	35012,79
447,77	34844,75
447,98	34852,43
448,18	34372,60
448,39	33551,05
448,59	34733,96
448,80	34733,86
449,01	34445,50
449,21	34514,42
449,42	34844,45
449,62	35692,00
449,83	35690,77
450,04	35236,33
450,24	36663,35
450,45	36517,02
450,65	36499,10
450,86	35961,92
451,06	36529,41
451,27	35997,76
451,47	34917,87
451,68	35197,93
451,89	34853,66
452,09	34636,68
452,30	33049,61
452,50	32682,41
452,71	33324,96
452,91	32443,51
453,12	33096,30
453,33	33167,06
453,53	33229,52
453,74	34463,83
453,94	33896,34
454,15	32894,88
454,35	33018,58
454,56	33584,74
454,76	34119,57
454,97	33137,98
455,17	33411,59
455,38	34471,51
455,58	34254,53
455,79	34182,85
456,00	34657,06
456,20	34274,91
456,41	34796,01
456,61	33668,50
456,82	33627,13
457,02	35113,04
457,23	34676,92
457,43	34674,47
457,64	33641,98
457,84	33125,18
458,05	33538,77
458,25	33208,84
458,46	33543,17
458,66	33331,31
458,87	33803,26
459,07	34105,44
459,28	33530,98
459,48	33336,32
459,69	33801,83
459,89	33418,65
460,10	34297,54
460,30	35358,90
460,51	34492,20
460,71	35186,66
460,92	35283,94
461,12	35223,22
461,33	36137,23
461,53	35087,54
461,74	34932,92
461,94	34927,08
462,15	36025,00
462,35	36077,84
462,56	35456,28
462,76	35488,43
462,97	35850,31
463,17	35349,58
463,38	35332,68
463,58	34330,51
463,79	35701,73
463,99	34815,47
464,20	34857,04
464,40	34558,24
464,61	34499,26
464,81	35233,36
465,02	34920,02
465,22	35311,90
465,43	36003,50
465,63	35468,87
465,83	35226,09
466,04	35980,15
466,24	35211,85
466,45	35752,21
466,65	34543,29
466,86	34946,44
467,06	35307,80
467,27	35503,79
467,47	36744,04
467,68	35932,94
467,88	36326,36
468,08	36532,59
468,29	36543,24
468,49	37274,77
468,70	37362,02
468,90	37531,38
469,11	37674,13
469,31	37475,06
469,52	36988,16
469,72	38684,70
469,92	36848,08
470,13	37197,36
470,33	36990,51
470,54	36634,88
470,74	37668,60
470,95	38341,25
471,15	39119,68
471,35	39785,58
471,56	40141,21
471,76	40814,28
471,97	41092,90
472,17	40805,98
472,38	41111,64
472,58	40559,20
472,78	40959,78
472,99	40684,23
473,19	40795,54
473,40	41955,00
473,60	40950,98
473,80	42466,78
474,01	43056,39
474,21	43373,11
474,42	43403,52
474,62	44058,36
474,83	43039,19
475,03	43972,35
475,23	43649,18
475,44	43952,79
475,64	44137,21
475,85	43680,20
476,05	43399,43
476,25	44471,85
476,46	44560,63
476,66	44515,67
476,86	45262,26
477,07	46066,19
477,27	47380,58
477,48	47216,84
477,68	47406,38
477,88	47954,52
478,09	47310,64
478,29	47700,26
478,50	47859,19
478,70	47877,62
478,90	47901,78
479,11	48707,97
479,31	49404,69
479,51	49815,82
479,72	49295,84
479,92	49493,47
480,12	49305,26
480,33	49896,51
480,53	49729,49
480,74	50221,62
480,94	50671,15
481,14	51136,04
481,35	51363,47
481,55	51454,09
481,75	51753,50
481,96	51666,87
482,16	51354,35
482,36	51668,72
482,57	51847,61
482,77	51465,35
482,97	51912,83
483,18	51832,14
483,38	51555,05
483,58	51864,40
483,79	51554,75
483,99	51705,89
484,19	51792,62
484,40	51695,75
484,60	51045,93
484,80	51348,21
485,01	50288,28
485,21	48399,95
485,41	46725,43
485,62	45749,06
485,82	44354,91
486,02	44461,61
486,23	44877,04
486,43	45851,67
486,63	47217,46
486,84	48077,09
487,04	48708,48
487,24	50054,30
487,45	50357,30
487,65	51777,46
487,85	51560,28
488,06	52118,45
488,26	51521,98
488,46	51682,64
488,67	51788,52
488,87	52223,82
489,07	53064,20
489,27	53929,67
489,48	54916,28
489,68	54644,00
489,88	55409,64
490,09	55356,39
490,29	54968,51
490,49	55048,17
490,70	54708,11
490,90	54078,05
491,10	53450,76
491,30	53432,84
491,51	52267,85
491,71	52492,51
491,91	52021,79
492,12	52676,73
492,32	52995,39
492,52	53980,46
492,72	54030,64
492,93	54337,63
493,13	53892,91
493,33	54125,66
493,53	54047,94
493,74	54365,28
493,94	55376,87
494,14	55129,27
494,34	55717,14
494,55	55900,13
494,75	55729,84
494,95	55570,81
495,16	55379,63
495,36	55044,18
495,56	54526,35
495,76	54847,78
495,97	54978,75
496,17	55284,51
496,37	55226,45
496,57	55571,73
496,78	55789,13
496,98	55349,02
497,18	55322,19
497,38	54610,62
497,59	54322,88
497,79	53187,90
497,99	52956,99
498,19	52597,37
498,39	53183,60
498,60	53372,11
498,80	53763,79
499,00	53518,54
499,20	53819,80
499,41	53721,91
499,61	52970,10
499,81	52490,36
500,01	51978,16
500,22	51502,42
500,42	50818,09
500,62	50488,37
500,82	50552,57
501,02	50077,03
501,23	49803,22
501,43	49606,62
501,63	49645,94
501,83	50005,76
502,03	49719,97
502,24	50747,13
502,44	50647,50
502,64	51110,75
502,84	51007,32
503,05	50859,77
503,25	50409,73
503,45	50200,22
503,65	49853,19
503,85	49499,00
504,06	49459,47
504,26	49803,53
504,46	50897,35
504,66	50831,30
504,86	51455,73
505,06	51403,30
505,27	51740,09
505,47	52356,22
505,67	52379,16
505,87	52339,43
506,07	52202,42
506,28	52068,58
506,48	51532,32
506,68	51486,14
506,88	50851,99
507,08	50451,40
507,28	50212,41
507,49	50471,37
507,69	49857,29
507,89	49576,72
508,09	50568,96
508,29	50643,81
508,49	51113,41
508,70	51465,97
508,90	51567,03
509,10	51244,68
509,30	50814,92
509,50	50774,27
509,70	50434,61
509,91	50064,13
510,11	50502,81
510,31	50307,53
510,51	50369,79
510,71	50994,52
510,91	50950,39
511,11	51447,23
511,32	51584,95
511,52	51185,19
511,72	51380,67
511,92	50938,10
512,12	50434,20
512,32	49699,70
512,52	49645,02
512,73	49615,42
512,93	49375,71
513,13	49131,18
513,33	49244,43
513,53	48992,12
513,73	48838,01
513,93	48263,97
514,13	48345,89
514,34	48808,42
514,54	48619,49
514,74	49186,17
514,94	49453,84
515,14	49542,72
515,34	49529,10
515,54	49388,30
515,74	48832,89
515,94	47427,58
516,15	46598,05
516,35	44806,07
516,55	43681,23
516,75	43107,59
516,95	43244,29
517,15	43596,13
517,35	43998,05
517,55	44609,98
517,75	45211,27
517,95	44731,84
518,16	44679,61
518,36	44936,43
518,56	45368,65
518,76	45978,95
518,96	46663,89
519,16	47292,41
519,36	47906,49
519,56	47807,48
519,76	48381,52
519,96	48254,65
520,16	48657,08
520,37	48393,91
520,57	48650,83
520,77	48657,79
520,97	49100,46
521,17	49264,71
521,37	49562,79
521,57	49421,58
521,77	49244,33
521,97	48829,62
522,17	48423,61
522,37	48394,73
522,57	47700,67
522,77	48039,41
522,97	48361,25
523,17	48525,80
523,37	48910,41
523,58	49412,16
523,78	50234,42
523,98	50514,48
524,18	49902,75
524,38	50386,07
524,58	50275,69
524,78	49820,63
524,98	50056,66
525,18	49540,06
525,38	49212,18
525,58	48642,43
525,78	48220,55
525,98	47051,47
526,18	45855,04
526,38	44960,08
526,58	44517,00
526,78	44339,45
526,98	45029,92
527,18	45400,91
527,38	46213,23
527,58	46850,77
527,78	47587,32
527,98	47841,06
528,18	48225,26
528,38	48737,46
528,58	49128,93
528,78	49416,36
528,98	49094,21
529,18	49042,09
529,38	48773,60
529,58	48177,65
529,78	48326,84
529,98	47870,35
530,18	48749,85
530,38	48768,08
530,58	49024,89
530,78	49373,97
530,98	49098,41
531,18	49090,83
531,38	48721,38
531,58	48432,41
531,78	47598,48
531,98	46867,87
532,18	46392,12
532,38	46110,73
532,58	45512,73
532,78	45537,61
532,98	46223,99
533,18	46186,41
533,38	46415,78
533,58	46983,78
533,78	46588,22
533,98	46460,22
534,18	46441,58
534,38	46545,52
534,58	46866,64
534,78	46968,42
534,98	47536,43
535,18	47873,93
535,38	48123,37
535,58	47874,65
535,78	47724,53
535,98	47279,20
536,18	46913,23
536,38	45980,18
536,58	46151,90
536,78	45154,64
536,98	45374,80
537,18	45907,27
537,38	45812,65
537,58	45892,21
537,78	46382,50
537,98	46258,29
538,17	46027,07
538,37	45769,75
538,57	45852,28
538,77	45341,82
538,97	44985,37
539,17	44787,95
539,37	44300,12
539,57	43884,90
539,77	43608,63
539,97	43108,51
540,17	42901,16
540,37	42510,40
540,57	42602,15
540,77	42747,25
540,97	42929,83
541,16	43100,12
541,36	43438,95
541,56	43413,35
541,76	43577,19
541,96	43844,45
542,16	43005,40
542,36	43311,26
542,56	42987,99
542,76	42999,87
542,96	42956,66
543,16	42922,97
543,36	42974,47
543,55	43199,14
543,75	43515,55
543,95	43321,09
544,15	43228,32
544,35	42785,86
544,55	42832,65
544,75	42765,68
544,95	42909,04
545,15	42485,11
545,35	42572,56
545,54	42534,37
545,74	42540,71
545,94	42148,84
546,14	42665,84
546,34	42390,91
546,54	42171,57
546,74	42121,70
546,94	41770,58
547,14	41563,12
547,33	41335,28
547,53	40795,13
547,73	41076,42
547,93	41067,81
548,13	40965,52
548,33	41266,06
548,53	41549,29
548,72	41201,14
548,92	41527,38
549,12	41432,66
549,32	41113,08
549,52	41099,56
549,72	40982,11
549,92	40850,22
550,12	40562,89
550,31	40708,09
550,51	40087,04
550,71	40439,40
550,91	40259,28
551,11	40113,67
551,31	40526,95
551,50	40348,77
551,70	40388,50
551,90	40652,08
552,10	40421,68
552,30	39959,35
552,50	39588,16
552,70	39632,60
552,89	39597,58
553,09	39716,26
553,29	39752,00
553,49	39673,66
553,69	40148,38
553,88	39793,67
554,08	39884,81
554,28	40009,63
554,48	39856,54
554,68	40010,76
554,88	39917,78
555,07	39740,12
555,27	39579,45
555,47	39419,30
555,67	39230,58
555,87	39234,17
556,06	38596,22
556,26	38514,61
556,46	38442,52
556,66	37968,73
556,86	37885,68
557,06	37798,64
557,25	37850,76
557,45	37615,55
557,65	37983,27
557,85	37717,24
558,05	37270,27
558,24	37068,54
558,44	36829,44
558,64	36724,59
558,84	36232,25
559,03	36120,54
559,23	36223,34
559,43	36424,86
559,63	36346,12
559,83	36450,98
560,02	36484,77
560,22	37033,52
560,42	37390,89
560,62	37455,40
560,82	37121,17
561,01	37041,30
561,21	36741,89
561,41	36656,49
561,61	36352,37
561,80	36303,52
562,00	36295,02
562,20	36478,01
562,40	36851,05
562,59	36598,23
562,79	36631,40
562,99	36488,56
563,19	36460,60
563,38	36152,59
563,58	36159,35
563,78	36012,61
563,98	35853,89
564,17	35707,97
564,37	35711,46
564,57	35840,99
564,77	35632,40
564,96	35423,10
565,16	35077,40
565,36	34874,96
565,56	34639,86
565,75	34445,71
565,95	34436,08
566,15	34597,36
566,35	34777,89
566,54	34804,20
566,74	35202,02
566,94	35141,40
567,14	35286,19
567,33	35225,57
567,53	34954,53
567,73	34761,91
567,92	34559,47
568,12	34225,04
568,32	33990,14
568,52	33890,50
568,71	33510,50
568,91	33860,50
569,11	34063,45
569,30	33659,90
569,50	33769,88
569,70	33592,63
569,90	33223,69
570,09	33152,72
570,29	32879,32
570,49	32750,40
570,68	32385,86
570,88	32245,68
571,08	32553,90
571,27	32569,46
571,47	32920,59
571,67	33211,09
571,87	33639,83
572,06	33375,85
572,26	33733,73
572,46	33650,99
572,65	33725,44
572,85	33510,71
573,05	33771,31
573,24	33499,14
573,44	33345,33
573,64	33441,59
573,83	33411,59
574,03	33147,81
574,23	33317,07
574,42	32962,67
574,62	32915,98
574,82	32727,16
575,01	32327,70
575,21	32242,20
575,41	32437,57
575,60	32198,37
575,80	32329,13
576,00	32345,52
576,19	32452,93
576,39	32263,70
576,59	32694,90
576,78	32585,03
576,98	32498,60
577,18	32494,92
577,37	32325,96
577,57	32111,02
577,77	31894,04
577,96	31494,79
578,16	31486,50
578,35	31481,58
578,55	31335,15
578,75	31580,39
578,94	31200,91
579,14	31737,88
579,34	31812,94
579,53	31627,91
579,73	31769,63
579,93	31600,67
580,12	31815,71
580,32	31474,41
580,51	31588,38
580,71	31522,64
580,91	31355,43
581,10	31622,48
581,30	31586,03
581,50	31550,19
581,69	31528,38
581,89	31599,44
582,08	31785,70
582,28	31502,57
582,48	31711,57
582,67	31454,44
582,87	31520,90
583,06	31447,07
583,26	31481,38
583,46	31394,64
583,65	31186,16
583,85	31428,13
584,04	31270,23
584,24	30954,95
584,44	31100,25
584,63	30974,40
584,83	30649,29
585,02	30368,10
585,22	30222,28
585,42	30010,73
585,61	29600,01
585,81	29656,33
586,00	29675,58
586,20	29770,20
586,39	29673,33
586,59	29580,86
586,79	29950,42
586,98	29429,52
587,18	29450,20
587,37	29455,42
587,57	28946,71
587,76	28573,06
587,96	28146,98
588,16	27491,93
588,35	26796,65
588,55	25966,71
588,74	25502,13
588,94	24890,40
589,13	24678,95
589,33	24713,56
589,52	24765,06
589,72	25104,00
589,92	25685,21
590,11	26091,63
590,31	26346,50
590,50	26637,83
590,70	26675,41
590,89	26675,61
591,09	26629,53
591,28	26527,13
591,48	26456,38
591,67	26310,97
591,87	26452,69
592,06	26353,57
592,26	26385,62
592,46	26473,58
592,65	26671,00
592,85	26524,88
593,04	26896,90
593,24	26637,62
593,43	26441,02
593,63	26476,55
593,82	26198,03
594,02	25750,85
594,21	25867,07
594,41	25576,57
594,60	25525,27
594,80	25676,61
594,99	25548,41
595,19	25666,89
595,38	26021,70
595,58	25921,55
595,77	25914,28
595,97	26038,69
596,16	26092,76
596,36	25932,40
596,55	26005,72
596,75	25895,64
596,94	25820,99
597,14	25695,04
597,33	25569,81
597,53	25529,47
597,72	25463,21
597,92	25355,08
598,11	25341,77
598,31	25292,11
598,50	25143,53
598,70	25124,89
598,89	25139,74
599,09	24982,25
599,28	25119,26
599,48	25001,60
599,67	24979,28
599,87	24735,26
600,06	24951,43
600,26	24628,16
600,45	24661,13
600,64	24600,41
600,84	24433,70
601,03	24525,35
601,23	24441,59
601,42	24337,24
601,62	24134,08
601,81	24137,05
602,01	24098,96
602,20	24095,58
602,40	24108,79
602,59	24063,94
602,78	24411,07
602,98	24229,83
603,17	24459,51
603,37	24320,04
603,56	24409,84
603,76	24348,20
603,95	24326,90
604,15	24056,67
604,34	24236,99
604,53	24030,97
604,73	24075,31
604,92	23901,95
605,12	23910,04
605,31	23762,99
605,51	23846,45
605,70	23656,09
605,89	23668,99
606,09	23451,49
606,28	23578,16
606,48	23491,53
606,67	23442,59
606,87	23450,27
607,06	23332,51
607,25	23200,31
607,45	23215,16
607,64	22967,36
607,84	22888,30
608,03	22716,99
608,22	22717,50
608,42	22638,55
608,61	22569,33
608,81	22357,27
609,00	22429,05
609,19	22280,57
609,39	22231,62
609,58	22132,30
609,78	22141,82
609,97	21935,18
610,16	21874,56
610,36	21841,69
610,55	21930,06
610,75	21918,28
610,94	21891,97
611,13	21916,75
611,33	21852,13
611,52	21757,01
611,71	21502,55
611,91	21485,96
612,10	21470,29
612,30	21266,11
612,49	21461,28
612,68	21386,12
612,88	21248,49
613,07	21136,57
613,26	21211,63
613,46	20991,99
613,65	20873,10
613,84	20970,28
614,04	20998,95
614,23	20869,01
614,43	21170,36
614,62	21072,88
614,81	21152,14
615,01	21116,81
615,20	20951,54
615,39	20782,68
615,59	20555,05
615,78	20419,89
615,97	20128,36
616,17	20139,62
616,36	20136,24
616,55	20190,72
616,75	20346,26
616,94	20331,11
617,13	20440,88
617,33	20576,25
617,52	20767,84
617,71	20773,26
617,91	20989,32
618,10	20858,46
618,29	20847,91
618,49	20902,39
618,68	20820,78
618,87	20708,55
619,07	20795,28
619,26	20765,79
619,45	20960,86
619,65	20827,13
619,84	20880,27
620,03	20989,02
620,22	21152,34
620,42	20876,58
620,61	20986,25
620,80	21065,71
621,00	20872,08
621,19	20810,43
621,38	20788,21
621,58	20727,29
621,77	20592,12
621,96	20732,10
622,15	20726,67
622,35	20517,17
622,54	20517,17
622,73	20627,96
622,93	20503,75
623,12	20355,68
623,31	20392,34
623,50	20357,22
623,70	20347,59
623,89	20214,58
624,08	20095,39
624,28	20188,47
624,47	20089,45
624,66	19958,68
624,85	20033,95
625,05	19959,40
625,24	19790,85
625,43	20071,32
625,62	19820,55
625,82	19931,34
626,01	20001,59
626,20	20203,62
626,39	20098,15
626,59	20202,09
626,78	20146,59
626,97	19924,38
627,17	19856,90
627,36	19632,44
627,55	19418,43
627,74	19391,70
627,93	19316,54
628,13	19269,95
628,32	19344,70
628,51	19421,91
628,70	19514,68
628,90	19464,71
629,09	19396,93
629,28	19305,28
629,47	19321,56
629,67	19181,89
629,86	19241,90
630,05	19173,80
630,24	19204,42
630,44	19224,28
630,63	19319,51
630,82	19216,60
631,01	19137,76
631,20	18907,97
631,40	19025,94
631,59	18909,71
631,78	18722,53
631,97	18810,59
632,16	18931,63
632,36	19035,05
632,55	18990,81
632,74	19094,54
632,93	18968,29
633,13	18975,56
633,32	18881,45
633,51	18821,96
633,70	18776,08
633,89	18693,14
634,09	18650,24
634,28	18603,03
634,47	18725,81
634,66	18704,92
634,85	18706,04
635,04	18725,30
635,24	18546,20
635,43	18593,30
635,62	18379,19
635,81	18310,38
636,00	18300,55
636,20	18292,87
636,39	18449,74
636,58	18361,68
636,77	18324,00
636,96	18379,19
637,15	18476,88
637,35	18410,93
637,54	18412,06
637,73	18360,24
637,92	18357,48
638,11	18363,73
638,30	18302,59
638,50	18215,76
638,69	18261,74
638,88	18030,42
639,07	17937,54
639,26	17975,53
639,45	17587,34
639,64	17651,75
639,84	17696,81
640,03	17432,82
640,22	17476,85
640,41	17506,45
640,60	17324,69
640,79	17320,29
640,98	17263,35
641,18	17191,06
641,37	17178,77
641,56	17029,47
641,75	17054,15
641,94	17024,25
642,13	17103,92
642,32	16928,82
642,52	17137,50
642,71	17097,98
642,90	16937,21
643,09	16833,18
643,28	16893,18
643,47	16789,76
643,66	16870,55
643,85	16657,87
644,04	16710,09
644,24	16672,82
644,43	16718,08
644,62	16510,62
644,81	16448,98
645,00	16268,04
645,19	16335,32
645,38	16096,52
645,57	16081,06
645,76	15917,84
645,96	15772,64
646,15	15741,00
646,34	15698,91
646,53	15535,28
646,72	15584,33
646,91	15377,69
647,10	15187,12
647,29	15174,83
647,48	15205,25
647,67	15005,77
647,86	14988,06
648,05	14991,85
648,25	14888,73
648,44	14840,09
648,63	14810,09
648,82	14614,10
649,01	14499,00
649,20	14428,86
649,39	14341,31
649,58	14329,84
649,77	14496,75
649,96	14588,91
650,15	14784,80
650,34	14790,53
650,53	14815,31
650,72	14701,24
650,91	14533,62
651,11	14553,17
651,30	14268,81
651,49	14254,78
651,68	14155,05
651,87	14153,92
652,06	14225,09
652,25	14303,22
652,44	14440,13
652,63	14401,42
652,82	14404,18
653,01	14391,49
653,20	14282,33
653,39	14282,23
653,58	14313,87
653,77	14190,48
653,96	14179,21
654,15	14059,82
654,34	13971,14
654,53	13837,31
654,72	13685,04
654,91	13551,20
655,10	13284,25
655,29	12972,45
655,48	12601,66
655,67	12215,72
655,86	11954,61
656,05	11590,27
656,24	11492,28
656,43	11536,21
656,62	11793,54
656,81	12061,41
657,00	12394,61
657,19	12569,31
657,38	12779,43
657,57	12959,24
657,76	12990,37
657,95	13145,50
658,14	13193,32
658,33	13191,17
658,52	13116,22
658,71	13151,24
658,90	13103,72
659,09	13131,88
659,28	13129,32
659,47	13202,33
659,66	13210,32
659,85	13172,74
660,04	13283,13
660,23	13243,50
660,42	13132,09
660,61	13232,44
660,80	13014,53
660,99	13066,96
661,18	13126,87
661,37	13109,97
661,56	13091,44
661,75	13102,80
661,94	13152,57
662,13	13028,97
662,32	12932,10
662,51	12884,69
662,70	12840,66
662,89	12826,33
663,08	12700,58
663,27	12647,13
663,46	12586,51
663,65	12597,47
663,83	12491,59
664,02	12560,29
664,21	12473,56
664,40	12509,81
664,59	12570,53
664,78	12482,27
664,97	12584,15
665,16	12379,97
665,35	12418,06
665,54	12349,56
665,73	12470,70
665,92	12387,04
666,11	12286,17
666,30	12248,49
666,49	12187,67
666,67	12225,04
666,86	12156,33
667,05	12113,02
667,24	12155,10
667,43	12027,31
667,62	12019,22
667,81	11932,29
668,00	12067,76
668,19	11916,72
668,38	11939,45
668,57	12017,48
668,76	11972,32
668,94	11957,48
669,13	11813,50
669,32	11834,80
669,51	11746,02
669,70	11783,40
669,89	11803,88
670,08	11696,26
670,27	11659,60
670,46	11642,19
670,64	11621,71
670,83	11522,28
671,02	11521,56
671,21	11421,73
671,40	11315,95
671,59	11343,08
671,78	11227,68
671,97	11214,27
672,16	11242,63
672,34	11230,14
672,53	11298,64
672,72	11212,94
672,91	11197,37
673,10	11179,35
673,29	11191,02
673,48	11150,27
673,66	11113,92
673,85	11143,10
674,04	10967,18
674,23	11021,96
674,42	11012,64
674,61	11048,79
674,80	10958,07
674,98	10915,67
675,17	10916,60
675,36	10854,54
675,55	11001,07
675,74	10979,16
675,93	10898,37
676,12	10917,00
676,30	10864,37
676,49	10847,99
676,68	10778,66
676,87	10739,34
677,06	10684,15
677,25	10713,44
677,43	10722,14
677,62	10682,92
677,81	10659,17
678,00	10588,20
678,19	10584,41
678,37	10546,73
678,56	10491,23
678,75	10630,19
678,94	10415,15
679,13	10454,27
679,32	10405,11
679,50	10265,44
679,69	10388,12
679,88	10247,52
680,07	10293,09
680,26	10215,58
680,44	10154,03
680,63	10239,84
680,82	10098,53
681,01	10258,58
681,20	10111,85
681,38	10179,53
681,57	10085,02
681,76	10027,06
681,95	10015,59
682,14	10027,78
682,32	9931,83
682,51	9929,47
682,70	9906,43
682,89	9841,82
683,07	9841,31
683,26	9761,44
683,45	9777,21
683,64	9643,17
683,83	9623,41
684,01	9563,09
684,20	9599,65
684,39	9544,25
684,58	9601,39
684,76	9581,11
684,95	9506,06
685,14	9529,30
685,33	9435,91
685,52	9429,97
685,70	9280,47
685,89	9129,84
686,08	8883,47
686,27	8566,65
686,45	8168,43
686,64	7741,63
686,83	7437,10
687,02	7181,51
687,20	7194,72
687,39	7202,30
687,58	7378,01
687,76	7585,98
687,95	7716,34
688,14	7844,33
688,33	7832,05
688,51	7914,68
688,70	7777,78
688,89	7747,67
689,08	7743,37
689,26	7761,80
689,45	7771,73
689,64	7846,79
689,83	7882,12
690,01	7923,18
690,20	7925,02
690,39	8018,31
690,57	8053,74
690,76	8061,42
690,95	8093,78
691,14	8072,38
691,32	8106,88
691,51	8050,05
691,70	8067,15
691,88	8067,77
692,07	8048,41
692,26	7992,30
692,44	7939,77
692,63	7938,54
692,82	7842,59
693,01	7786,48
693,19	7738,86
693,38	7667,60
693,57	7638,82
693,75	7603,80
693,94	7511,95
694,13	7551,17
694,31	7530,18
694,50	7565,91
694,69	7552,50
694,87	7611,07
695,06	7592,64
695,25	7628,27
695,43	7644,56
695,62	7657,56
695,81	7643,22
695,99	7726,06
696,18	7854,78
696,37	7883,96
696,55	7967,21
696,74	7912,94
696,93	7964,65
697,11	7925,43
697,30	7873,42
697,49	7879,15
697,67	7797,23
697,86	7777,47
698,05	7715,72
698,23	7649,88
698,42	7658,58
698,61	7612,30
698,79	7539,80
698,98	7452,76
699,17	7421,22
699,35	7384,36
699,54	7384,46
699,72	7365,42
699,91	7325,28
700,10	7279,50
700,28	7224,21
700,47	7212,23
700,66	7161,54
700,84	7183,66
701,03	7211,21
701,21	7155,50
701,40	7173,11
701,59	7133,38
701,77	7087,10
701,96	7084,54
702,15	7128,26
702,33	7156,63
702,52	7133,48
702,70	7138,71
702,89	7142,29
703,08	7220,52
703,26	7270,60
703,45	7230,25
703,63	7273,16
703,82	7230,56
704,01	7222,78
704,19	7225,23
704,38	7245,92
704,56	7270,29
704,75	7207,62
704,94	7192,88
705,12	7114,34
705,31	7114,54
705,49	7113,62
705,68	7063,03
705,86	7121,50
706,05	7031,80
706,24	7102,36
706,42	7082,18
706,61	7041,43
706,79	7054,02
706,98	7036,31
707,17	7077,98
707,35	7126,73
707,54	7048,29
707,72	7064,88
707,91	6901,96
708,09	7042,35
708,28	6978,66
708,46	7000,88
708,65	6978,76
708,84	6951,32
709,02	6937,29
709,21	6967,19
709,39	6964,22
709,58	6899,30
709,76	6980,91
709,95	6904,11
710,13	6906,88
710,32	6888,04
710,50	6902,37
710,69	6819,53
710,88	6883,63
711,06	6807,86
711,25	6870,42
711,43	6802,94
711,62	6829,87
711,80	6743,45
711,99	6770,79
712,17	6744,27
712,36	6726,04
712,54	6722,05
712,73	6709,25
712,91	6678,94
713,10	6641,97
713,28	6697,37
713,47	6619,03
713,65	6596,40
713,84	6530,56
714,02	6535,17
714,21	6431,44
714,39	6396,52
714,58	6342,66
714,76	6312,15
714,95	6258,90
715,13	6305,90
715,32	6219,07
715,50	6179,34
715,69	6111,14
715,87	5910,64
716,06	5802,51
716,24	5657,72
716,43	5359,53
716,61	5213,21
716,80	5023,36
716,98	4803,10
717,17	4678,48
717,35	4605,27
717,54	4529,19
717,72	4410,81
717,91	4388,29
718,09	4326,44
718,28	4220,35
718,46	4210,52
718,65	4134,54
718,83	4115,70
719,01	4019,45
719,20	3961,80
719,38	4031,84
719,57	3959,03
719,75	3981,05
719,94	4016,99
720,12	4044,94
720,31	4173,56
720,49	4226,80
720,68	4448,90
720,86	4572,09
721,04	4787,02
721,23	4912,46
721,41	4954,24
721,60	5031,14
721,78	5051,11
721,97	5080,91
722,15	5041,08
722,34	4952,81
722,52	4854,81
722,70	4799,82
722,89	4637,93
723,07	4509,63
723,26	4471,02
723,44	4325,11
723,63	4198,34
723,81	4196,90
723,99	4217,28
724,18	4168,95
724,36	4156,97
724,55	4136,90
724,73	4120,31
724,91	4101,16
725,10	4110,58
725,28	4109,66
725,47	4083,75
725,65	4037,16
725,83	4095,32
726,02	4115,60
726,20	4112,83
726,39	4133,21
726,57	4157,27
726,75	4076,17
726,94	4111,50
727,12	4068,60
727,31	4006,95
727,49	4011,05
727,67	3971,73
727,86	4065,01
728,04	4044,64
728,23	4087,85
728,41	4040,95
728,59	4059,59
728,78	4017,30
728,96	4011,56
729,14	3944,90
729,33	3985,76
729,51	3997,12
729,69	4034,70
729,88	4079,04
730,06	4060,41
730,25	4063,99
730,43	4030,40
730,61	4027,94
730,80	4032,25
730,98	4028,76
731,16	4092,56
731,35	4098,70
731,53	4154,61
731,71	4209,19
731,90	4296,02
732,08	4382,35
732,26	4431,60
732,45	4448,70
732,63	4513,31
732,81	4476,76
733,00	4537,99
733,18	4576,80
733,36	4577,62
733,55	4594,72
733,73	4633,84
733,91	4686,06
734,10	4646,53
734,28	4698,86
734,46	4666,91
734,65	4584,69
734,83	4595,74
735,01	4557,55
735,20	4525,19
735,38	4520,17
735,56	4525,70
735,75	4512,49
735,93	4487,41
736,11	4465,70
736,30	4436,21
736,48	4462,63
736,66	4475,22
736,84	4512,19
737,03	4497,24
737,21	4545,26
737,39	4534,61
737,58	4558,16
737,76	4523,55
737,94	4473,07
738,12	4433,14
738,31	4488,74
738,49	4439,79
738,67	4438,97
738,86	4377,53
739,04	4387,67
739,22	4405,08
739,40	4413,27
739,59	4487,92
739,77	4400,78
739,95	4485,05
740,14	4456,38
740,32	4418,08
740,50	4400,47
740,68	4437,03
740,87	4405,80
741,05	4390,03
741,23	4327,77
741,41	4360,02
741,60	4351,52
741,78	4428,63
741,96	4332,48
742,14	4363,71
742,33	4356,64
742,51	4377,53
742,69	4389,51
742,87	4418,08
743,06	4410,51
743,24	4415,32
743,42	4365,35
743,60	4363,30
743,79	4349,17
743,97	4297,15
744,15	4298,17
744,33	4282,30
744,52	4270,94
744,70	4254,86
744,88	4248,41
745,06	4254,45
745,24	4262,44
745,43	4287,22
745,61	4293,36
745,79	4204,07
745,97	4226,19
746,16	4233,87
746,34	4224,45
746,52	4213,90
746,70	4207,35
746,88	4173,86
747,07	4212,06
747,25	4187,07
747,43	4198,54
747,61	4152,26
747,79	4145,40
747,98	4117,85
748,16	4101,88
748,34	4094,71
748,52	4086,00
748,70	4087,44
748,89	4054,67
749,07	4064,09
749,25	4034,81
749,43	4035,73
749,61	4042,79
749,79	4040,44
749,98	4009,10
750,16	4053,13
750,34	3981,15
750,52	4013,20
750,70	4004,80
750,88	4025,79
751,07	3971,83
751,25	4016,99
751,43	3961,18
751,61	3976,03
751,79	4056,62
751,97	3997,23
752,16	4000,91
752,34	4014,63
752,52	4002,35
752,70	4036,03
752,88	4012,07
753,06	3995,89
753,25	3985,76
753,43	4010,54
753,61	3995,79
753,79	4040,13
753,97	3985,14
754,15	4017,30
754,33	3951,45
754,52	4004,70
754,70	4005,21
754,88	3997,94
755,06	4022,21
755,24	4021,49
755,42	3980,74
755,60	4030,10
755,78	4006,44
755,97	4007,77
756,15	4005,62
756,33	4007,36
756,51	4024,87
756,69	4041,36
756,87	4041,05
757,05	4059,38
757,23	4016,17
757,41	4029,07
757,60	4012,79
757,78	4024,77
757,96	4011,25
758,14	3993,33
758,32	3954,83
758,50	3847,52
758,68	3710,10
758,86	3472,95
759,04	3191,76
759,22	2872,69
759,41	2553,31
759,59	2219,69
759,77	1874,81
759,95	1585,03
760,13	1386,37
760,31	1254,07
760,49	1192,74
760,67	1164,17
760,85	1284,08
761,03	1431,53
761,21	1542,02
761,39	1692,24
761,57	1836,11
761,76	1939,94
761,94	1974,55
762,12	1970,04
762,30	1936,25
762,48	1860,78
762,66	1823,61
762,84	1783,88
763,02	1776,10
763,20	1767,09
763,38	1836,11
763,56	1862,73
763,74	1937,89
763,92	1992,06
764,10	2067,63
764,28	2202,18
764,46	2230,34
764,64	2291,78
764,82	2420,60
765,00	2473,23
765,19	2570,10
765,37	2641,67
765,55	2757,69
765,73	2819,23
765,91	2892,35
766,09	2938,94
766,27	3060,38
766,45	3097,25
766,63	3210,19
766,81	3259,04
766,99	3348,12
767,17	3386,42
767,35	3429,12
767,53	3483,49
767,71	3528,85
767,89	3528,55
768,07	3581,90
768,25	3589,27
768,43	3585,58
768,61	3636,27
768,79	3605,96
768,97	3637,91
769,15	3623,88
769,33	3655,52
769,51	3619,99
769,69	3664,23
769,87	3684,30
770,05	3694,84
770,23	3700,58
770,41	3699,76
770,59	3691,26
770,77	3692,59
770,95	3656,44
771,13	3639,45
771,31	3647,84
771,49	3666,38
771,67	3614,87
771,85	3642,72
772,03	3655,01
772,21	3617,84
772,38	3641,49
772,56	3615,18
772,74	3600,84
772,92	3585,99
773,10	3581,28
773,28	3592,75
773,46	3532,95
773,64	3540,84
773,82	3505,92
774,00	3506,12
774,18	3485,75
774,36	3465,37
774,54	3414,78
774,72	3466,90
774,90	3454,00
775,08	3465,06
775,26	3435,88
775,44	3423,90
775,62	3422,26
775,80	3429,84
775,97	3391,64
776,15	3464,75
776,33	3364,61
776,51	3374,95
776,69	3374,75
776,87	3360,61
777,05	3346,48
777,23	3338,09
777,41	3293,03
777,59	3276,95
777,77	3325,08
777,95	3288,32
778,13	3259,24
778,30	3268,25
778,48	3218,28
778,66	3269,38
778,84	3246,13
779,02	3247,36
779,20	3245,31
779,38	3228,42
779,56	3205,07
779,74	3214,49
779,92	3192,37
780,09	3177,12
780,27	3194,22
780,45	3180,60
780,63	3153,97
780,81	3143,22
780,99	3134,11
781,17	3124,89
781,35	3117,42
781,52	3164,11
781,70	3083,63
781,88	3102,37
782,06	3093,15
782,24	3057,11
782,42	3038,26
782,60	3040,62
782,78	2986,35
782,95	2999,66
783,13	2953,79
783,31	2969,35
783,49	2949,38
783,67	2933,92
783,85	2902,69
784,03	2894,39
784,20	2888,05
784,38	2928,19
784,56	2867,57
784,74	2900,03
784,92	2870,64
785,10	2865,52
785,28	2836,54
785,45	2848,93
785,63	2787,59
785,81	2791,28
785,99	2792,30
786,17	2795,07
786,35	2753,29
786,52	2725,64
786,70	2758,31
786,88	2696,15
787,06	2688,16
787,24	2694,00
787,41	2646,28
787,59	2665,84
787,77	2654,47
787,95	2574,09
788,13	2589,96
788,31	2584,33
788,48	2570,00
788,66	2568,05
788,84	2551,46
789,02	2555,05
789,20	2497,91
789,37	2526,58
789,55	2498,01
789,73	2478,86
789,91	2435,44
790,09	2474,87
790,26	2456,33
790,44	2460,22
790,62	2410,56
790,80	2420,19
790,98	2412,00
791,15	2405,03
791,33	2406,88
791,51	2400,12
791,69	2370,63
791,86	2393,87
792,04	2376,57
792,22	2337,96
792,40	2328,95
792,58	2325,67
792,75	2329,46
792,93	2309,29
793,11	2321,47
793,29	2301,71
793,46	2317,69
793,64	2320,55
793,82	2302,94
794,00	2304,78
794,17	2307,04
794,35	2244,16
794,53	2243,04
794,71	2287,38
794,88	2269,66
795,06	2268,94
795,24	2208,22
795,42	2209,25
795,59	2175,15
795,77	2173,61
795,95	2157,02
796,13	2171,67
796,30	2128,25
796,48	2145,86
796,66	2143,20
796,83	2160,10
797,01	2140,23
797,19	2142,58
797,37	2178,12
797,54	2187,85
797,72	2139,10
797,90	2140,74
798,08	2128,66
798,25	2106,85
798,43	2105,72
798,61	2107,46
798,78	2141,36
798,96	2090,16
799,14	2085,75
799,31	2075,41
799,49	2054,11
799,67	2012,64
799,85	2015,00
800,02	2032,81
800,20	1999,53
800,38	1988,07
800,55	1936,15
800,73	1978,75
800,91	1994,52
801,08	1956,01
801,26	1969,53
801,44	1965,03
801,61	1988,07
801,79	1943,73
801,97	1952,23
802,15	1983,97
802,32	1925,09
802,50	1913,93
802,68	1917,92
802,85	1930,01
803,03	1902,05
803,21	1962,26
803,38	1920,48
803,56	1906,56
803,74	1899,80
803,91	1873,99
804,09	1869,69
804,26	1915,87
804,44	1865,49
804,62	1884,03
804,79	1913,72
804,97	1917,72
805,15	1899,18
805,32	1919,36
805,50	1888,23
805,68	1889,05
805,85	1915,06
806,03	1906,45
806,21	1868,77
806,38	1870,10
806,56	1884,54
806,73	1866,93
806,91	1880,85
807,09	1824,43
807,26	1845,83
807,44	1816,04
807,62	1840,61
807,79	1817,37
807,97	1805,49
808,14	1820,03
808,32	1792,28
808,50	1804,67
808,67	1787,16
808,85	1762,38
809,02	1764,12
809,20	1718,86
809,38	1719,17
809,55	1674,21
809,73	1683,84
809,90	1682,61
810,08	1684,76
810,26	1653,02
810,43	1674,01
810,61	1632,95
810,78	1664,59
810,96	1612,78
811,14	1589,94
811,31	1580,11
811,49	1589,53
811,66	1535,87
811,84	1540,48
812,02	1535,57
812,19	1512,02
812,37	1459,28
812,54	1428,25
812,72	1404,19
812,89	1404,09
813,07	1402,86
813,25	1367,33
813,42	1324,83
813,60	1321,14
813,77	1285,00
813,95	1260,83
814,12	1258,37
814,30	1224,69
814,47	1221,82
814,65	1193,15
814,83	1191,20
815,00	1167,55
815,18	1168,98
815,35	1124,44
815,53	1130,58
815,70	1088,39
815,88	1087,98
816,05	1083,27
816,23	1097,71
816,40	1059,72
816,58	1075,08
816,75	1083,58
816,93	1065,87
817,10	1069,35
817,28	1054,09
817,46	1059,93
817,63	1073,03
817,81	1077,74
817,98	1047,64
818,16	1071,09
818,33	1098,53
818,51	1055,42
818,68	1083,38
818,86	1057,06
819,03	1073,75
819,21	1064,53
819,38	1096,89
819,56	1101,09
819,73	1081,12
819,91	1146,45
820,08	1137,75
820,26	1165,91
820,43	1185,26
820,61	1216,19
820,78	1197,75
820,96	1188,33
821,13	1200,93
821,31	1226,12
821,48	1180,76
821,66	1133,86
821,83	1113,38
822,00	1051,12
822,18	1010,06
822,35	946,67
822,53	967,36
822,70	938,58
822,88	871,62
823,05	914,73
823,23	925,78
823,40	958,96
823,58	985,58
823,75	990,81
823,93	1035,45
824,10	1051,43
824,28	1055,93
824,45	1093,92
824,62	1080,30
824,80	1103,65
824,97	1129,76
825,15	1104,16
825,32	1092,08
825,50	1098,33
825,67	1135,29
825,85	1094,95
826,02	1125,97
826,19	1109,38
826,37	1077,64
826,54	1096,69
826,72	1068,53
826,89	1052,66
827,07	1044,77
827,24	1033,51
827,41	1025,73
827,59	1021,32
827,76	1014,46
827,94	1010,06
828,11	988,66
828,28	960,19
828,46	997,87
828,63	975,45
828,81	976,06
828,98	974,42
829,15	995,11
829,33	971,35
829,50	955,89
829,68	964,29
829,85	992,55
830,02	954,66
830,20	1003,30
830,37	997,77
830,55	989,07
830,72	983,13
830,89	982,62
831,07	977,70
831,24	977,09
831,42	979,44
831,59	968,69
831,76	995,72
831,94	953,64
832,11	965,51
832,28	981,28
832,46	975,65
832,63	976,06
832,81	989,89
832,98	955,07
833,15	964,80
833,33	936,13
833,50	964,49
833,67	970,23
833,85	976,06
834,02	977,91
834,19	979,54
834,37	1018,86
834,54	995,52
834,71	994,60
834,89	1006,99
835,06	1002,17
835,23	986,92
835,41	991,32
835,58	981,90
835,75	981,08
835,93	956,91
836,10	1000,33
836,27	959,37
836,45	981,18
836,62	961,93
836,79	992,45
836,97	957,73
837,14	993,88
837,31	964,70
837,49	961,01
837,66	998,90
837,83	953,23
838,01	976,57
838,18	948,93
838,35	974,53
838,53	978,01
838,70	964,29
838,87	973,40
839,04	1000,43
839,22	975,24
839,39	980,77
839,56	950,87
839,74	955,28
839,91	992,45
840,08	957,02
840,26	975,75
840,43	954,35
840,60	950,87
840,77	971,97
840,95	965,62
841,12	931,42
841,29	942,07
841,46	945,75
841,64	950,05
841,81	945,75
841,98	940,53
842,16	941,35
842,33	920,77
842,50	914,32
842,67	947,29
842,85	901,72
843,02	924,25
843,19	924,35
843,36	904,89
843,54	923,63
843,71	920,05
843,88	911,24
844,05	904,38
844,23	896,81
844,40	916,36
844,57	900,49
844,74	892,71
844,92	893,12
845,09	877,96
845,26	887,28
845,43	876,74
845,61	905,51
845,78	902,54
845,95	889,64
846,12	885,03
846,29	864,04
846,47	887,90
846,64	884,21
846,81	844,58
846,98	864,04
847,16	867,83
847,33	853,90
847,50	850,11
847,67	842,43
847,84	845,91
848,02	832,50
848,19	812,53
848,36	813,25
848,53	837,41
848,70	815,71
848,88	853,49
849,05	784,78
849,22	797,79
849,39	782,32
849,56	782,02
849,74	766,45
849,91	776,59
850,08	769,32
850,25	771,47
850,42	772,80
850,60	757,24
850,77	774,23
850,94	740,24
851,11	754,68
851,28	745,15
851,45	734,30
851,63	773,52
851,80	751,91
851,97	766,04
852,14	758,36
852,31	766,15
852,48	755,70
852,66	738,70
852,83	740,75
853,00	740,03
853,17	706,45
853,34	734,91
853,51	711,16
853,68	669,48
853,86	656,99
854,03	655,96
854,20	641,32
854,37	646,13
854,54	627,40
854,71	649,10
854,88	657,81
855,06	685,66
855,23	680,03
855,40	678,29
855,57	690,58
855,74	688,02
855,91	679,11
856,08	706,65
856,25	689,24
856,43	695,39
856,60	698,56
856,77	680,44
856,94	701,53
857,11	718,53
857,28	688,73
857,45	692,01
857,62	678,90
857,79	665,08
857,97	669,89
858,14	680,74
858,31	664,67
858,48	691,19
858,65	686,79
858,82	662,72
858,99	683,82
859,16	668,35
859,33	677,57
859,50	693,24
859,67	667,43
859,85	647,26
860,02	652,69
860,19	624,94
860,36	660,27
860,53	651,87
860,70	666,10
860,87	613,16
861,04	642,55
861,21	636,71
861,38	634,67
861,55	633,23
861,72	666,82
861,89	634,05
862,06	622,48
862,23	623,71
862,41	622,38
862,58	631,59
862,75	647,26
862,92	629,24
863,09	612,04
863,26	606,51
863,43	608,14
863,60	595,75
863,77	595,45
863,94	606,10
864,11	623,71
864,28	604,87
864,45	611,83
864,62	597,49
864,79	599,24
864,96	604,87
865,13	576,61
865,30	597,09
865,47	575,38
865,64	580,60
865,81	536,88
865,98	534,83
866,15	519,47
866,32	509,94
866,49	495,92
866,66	496,94
866,83	487,01
867,00	488,03
867,17	545,58
867,34	495,71
867,51	514,35
867,68	525,41
867,85	533,50
868,02	508,41
868,19	489,46
868,36	538,51
868,53	518,65
868,70	512,50
868,87	546,81
869,04	514,24
869,21	508,82
869,38	506,26
869,55	505,03
869,72	526,53
869,89	501,85
870,06	494,99
870,23	528,27
870,40	518,14
870,57	539,64
870,74	488,44
870,91	507,79
871,08	496,33
871,25	489,26
871,42	509,64
871,59	480,56
871,76	485,98
871,93	504,31
872,10	485,16
872,27	488,34
872,44	478,82
872,60	462,64
872,77	446,56
872,94	464,89
873,11	466,32
873,28	461,61
873,45	445,02
873,62	436,42
873,79	451,47
873,96	452,91
874,13	439,80
874,30	463,15
874,47	455,57
874,64	437,45
874,81	456,49
874,97	453,52
875,14	444,82
875,31	450,96
875,48	439,29
875,65	424,75
875,82	432,53
875,99	441,34
876,16	431,81
876,33	421,16
876,50	418,91
876,67	420,76
876,83	417,48
877,00	401,50
877,17	403,35
877,34	414,20
877,51	399,97
877,68	412,67
877,85	375,39
878,02	407,03
878,19	401,81
878,35	393,21
878,52	394,23
878,69	405,50
878,86	377,65
879,03	406,42
879,20	386,04
879,37	400,07
879,54	392,90
879,70	397,61
879,87	373,55
880,04	378,16
880,21	356,55
880,38	356,76
880,55	364,44
880,72	374,88
880,89	383,69
881,05	365,77
881,22	347,13
881,39	344,88
881,56	362,80
881,73	361,47
881,90	350,00
882,06	343,85
882,23	352,35
882,40	342,73
882,57	350,71
882,74	357,06
882,91	364,03
883,07	337,61
883,24	338,22
883,41	346,93
883,58	338,63
883,75	329,11
883,92	334,54
884,08	333,61
884,25	338,32
884,42	330,03
884,59	355,73
884,76	344,88
884,92	349,38
885,09	360,03
885,26	311,09
885,43	324,30
885,60	318,87
885,76	311,29
885,93	319,18
886,10	301,36
886,27	328,80
886,44	325,52
886,60	313,13
886,77	297,06
886,94	293,27
887,11	300,64
887,28	285,69
887,44	318,15
887,61	302,89
887,78	307,09
887,95	306,07
888,12	291,73
888,28	285,59
888,45	329,42
888,62	309,14
888,79	269,31
888,95	288,97
889,12	281,80
889,29	299,41
889,46	276,68
889,62	293,27
889,79	278,83
889,96	291,43
890,13	256,20
890,29	288,46
890,46	280,57
890,63	280,98
890,80	269,00
890,96	273,81
891,13	261,63
891,30	283,75
891,47	260,30
891,63	264,29
891,80	246,17
891,97	267,57
892,14	259,17
892,30	277,19
892,47	244,12
892,64	219,34
892,80	252,82
892,97	257,74
893,14	244,43
893,31	230,40
893,47	225,17
893,64	237,87
893,81	222,61
893,97	232,03
894,14	244,22
>>>>>End Processed Spectral Data<<<<<
