SpectraSuite Datei
++++++++++++++++++++++++++++++++++++
Datum: Mon Jun 06 15:32:04 CEST 2016
Benutzer: Admin
Dark-Spektrum vorhanden: Ja
Referenz-Spektrum vorhanden: Nein
Zahl der probierten Teilspektren: 1
Spektrometer: USB4H10187
Integrationszeit (usec): 50000 (USB4H10187)
Spektren Durchschnitt berechnet: 80 (USB4H10187)
Boxcar Glättung: 0 (USB4H10187)
Dunkelstromkorrektur: Nein (USB4H10187)
Puls/Lampe aktiviert: Nein (USB4H10187)
Correct for Detector Non-linearity: Nein (USB4H10187)
Streulichtkorrektur: Nein (USB4H10187)
Anzahl Pixel in verarbeitetem Spektrum: 3648
>>>>>Begin Processed Spectral Data<<<<<
176,80	8,37
177,02	8,37
177,24	8,37
177,46	4,12
177,68	-17,89
177,91	-161,28
178,13	-217,93
178,35	-201,11
178,57	-125,44
178,79	-195,56
179,02	-91,31
179,24	-198,45
179,46	-171,54
179,68	-152,86
179,90	-127,03
180,12	-226,86
180,35	-178,89
180,57	-84,56
180,79	-115,68
181,01	37,12
181,23	-121,42
181,46	-50,61
181,68	50,97
181,90	-43,78
182,12	9,06
182,34	-24,63
182,56	-49,66
182,79	-30,59
183,01	-85,45
183,23	-51,17
183,45	-44,49
183,67	12,72
183,89	-45,44
184,12	-31,95
184,34	16,36
184,56	-11,72
184,78	71,37
185,00	-115,84
185,22	-15,82
185,45	29,23
185,67	73,80
185,89	-24,32
186,11	26,42
186,33	-3,25
186,55	-39,47
186,77	-23,14
187,00	17,23
187,22	-41,57
187,44	31,13
187,66	-34,30
187,88	-3,74
188,10	-122,47
188,32	-89,19
188,55	-1,74
188,77	-1,74
188,99	-15,46
189,21	9,80
189,43	53,02
189,65	64,23
189,87	48,15
190,10	32,43
190,32	-6,12
190,54	-37,53
190,76	40,50
190,98	-15,69
191,20	-3,66
191,42	-5,86
191,64	48,20
191,87	-49,84
192,09	-38,37
192,31	28,52
192,53	-104,29
192,75	38,37
192,97	-83,92
193,19	-6,81
193,41	-24,32
193,64	4,30
193,86	44,82
194,08	86,55
194,30	35,97
194,52	-0,23
194,74	98,51
194,96	65,77
195,18	99,63
195,40	-42,98
195,63	-19,69
195,85	78,18
196,07	34,43
196,29	-29,67
196,51	-27,93
196,73	35,81
196,95	106,78
197,17	14,95
197,39	-7,65
197,61	-43,75
197,84	10,19
198,06	56,63
198,28	-40,91
198,50	38,63
198,72	-31,69
198,94	-42,67
199,16	3,66
199,38	-33,74
199,60	51,99
199,82	19,38
200,04	-10,32
200,26	-13,00
200,49	113,12
200,71	69,09
200,93	-18,87
201,15	-8,14
201,37	34,15
201,59	42,85
201,81	-24,22
202,03	53,38
202,25	69,27
202,47	50,99
202,69	115,48
202,91	104,57
203,13	11,19
203,35	154,16
203,58	113,69
203,80	15,56
204,02	53,73
204,24	41,80
204,46	19,43
204,68	88,47
204,90	-0,13
205,12	43,88
205,34	-1,59
205,56	50,10
205,78	13,95
206,00	-33,74
206,22	47,79
206,44	12,44
206,66	128,18
206,88	-67,58
207,10	38,32
207,32	45,03
207,54	-3,48
207,76	21,91
207,99	6,30
208,21	-25,96
208,43	37,66
208,65	123,24
208,87	24,01
209,09	25,50
209,31	76,54
209,53	129,41
209,75	39,22
209,97	33,74
210,19	56,32
210,41	74,47
210,63	71,24
210,85	38,76
211,07	73,52
211,29	13,80
211,51	127,33
211,73	76,52
211,95	-6,09
212,17	79,00
212,39	114,76
212,61	24,73
212,83	56,17
213,05	34,66
213,27	66,35
213,49	25,57
213,71	77,57
213,93	-27,67
214,15	54,17
214,37	60,82
214,59	13,36
214,81	140,52
215,03	104,42
215,25	13,64
215,47	-46,64
215,69	11,90
215,91	45,44
216,13	65,53
216,35	30,82
216,57	33,38
216,79	79,00
217,01	51,28
217,23	77,72
217,45	105,06
217,67	145,89
217,89	84,22
218,11	96,41
218,33	114,02
218,55	56,09
218,77	85,58
218,99	150,45
219,21	62,95
219,43	96,54
219,65	128,51
219,87	16,08
220,09	60,47
220,31	-23,27
220,53	109,69
220,75	75,77
220,97	34,20
221,19	50,56
221,41	28,52
221,63	148,09
221,85	95,38
222,06	63,44
222,28	41,37
222,50	34,94
222,72	54,42
222,94	138,47
223,16	48,64
223,38	137,93
223,60	65,61
223,82	70,60
224,04	33,89
224,26	128,87
224,48	153,29
224,70	45,72
224,92	110,74
225,14	91,62
225,36	0,61
225,58	87,55
225,80	59,75
226,02	111,87
226,24	57,78
226,45	86,73
226,67	105,73
226,89	50,56
227,11	-4,12
227,33	-7,94
227,55	71,22
227,77	110,33
227,99	58,75
228,21	53,17
228,43	44,21
228,65	45,77
228,87	69,37
229,09	43,44
229,31	66,99
229,52	78,82
229,74	33,15
229,96	82,71
230,18	50,05
230,40	19,99
230,62	96,84
230,84	-16,59
231,06	113,97
231,28	11,78
231,50	103,83
231,72	65,74
231,94	40,14
232,15	59,57
232,37	17,79
232,59	122,34
232,81	-27,90
233,03	58,60
233,25	94,16
233,47	85,12
233,69	179,66
233,91	171,62
234,13	164,04
234,34	192,10
234,56	196,73
234,78	136,34
235,00	204,23
235,22	109,98
235,44	196,12
235,66	47,00
235,88	91,06
236,10	123,75
236,31	103,86
236,53	42,06
236,75	10,73
236,97	122,14
237,19	50,64
237,41	33,13
237,63	1,72
237,85	96,13
238,07	66,10
238,28	142,67
238,50	60,47
238,72	91,88
238,94	106,93
239,16	17,51
239,38	56,93
239,60	14,00
239,81	88,14
240,03	90,93
240,25	86,94
240,47	32,28
240,69	73,27
240,91	68,66
241,13	-40,75
241,34	30,85
241,56	63,46
241,78	44,13
242,00	-12,26
242,22	78,54
242,44	1,48
242,66	49,61
242,87	53,58
243,09	86,83
243,31	21,58
243,53	68,84
243,75	48,64
243,97	132,96
244,19	149,60
244,40	78,67
244,62	74,44
244,84	-1,66
245,06	31,82
245,28	94,49
245,50	49,59
245,71	46,57
245,93	172,16
246,15	50,69
246,37	-26,34
246,59	42,21
246,81	77,08
247,02	30,57
247,24	84,68
247,46	132,17
247,68	95,67
247,90	109,75
248,11	93,28
248,33	62,26
248,55	142,59
248,77	167,65
248,99	70,04
249,21	236,36
249,42	139,85
249,64	171,03
249,86	134,53
250,08	208,33
250,30	190,03
250,51	176,84
250,73	216,29
250,95	201,88
251,17	146,86
251,39	173,31
251,60	191,51
251,82	100,15
252,04	181,09
252,26	205,36
252,48	142,10
252,69	208,36
252,91	199,96
253,13	185,52
253,35	295,75
253,57	236,82
253,78	287,00
254,00	154,49
254,22	234,42
254,44	186,21
254,65	177,05
254,87	170,52
255,09	207,61
255,31	196,96
255,53	205,87
255,74	192,23
255,96	218,24
256,18	205,44
256,40	160,02
256,61	104,57
256,83	184,19
257,05	167,93
257,27	193,66
257,48	103,29
257,70	190,44
257,92	181,30
258,14	199,78
258,36	186,16
258,57	160,51
258,79	224,00
259,01	224,61
259,23	268,90
259,44	211,56
259,66	211,43
259,88	272,23
260,10	336,46
260,31	366,87
260,53	365,31
260,75	337,12
260,97	218,36
261,18	255,28
261,40	141,98
261,62	215,98
261,84	288,28
262,05	270,64
262,27	207,15
262,49	208,46
262,71	252,21
262,92	330,59
263,14	250,62
263,36	338,96
263,57	253,92
263,79	345,90
264,01	256,82
264,23	328,55
264,44	241,07
264,66	322,99
264,88	354,32
265,10	328,83
265,31	250,95
265,53	318,59
265,75	183,96
265,96	323,25
266,18	376,31
266,40	304,69
266,62	230,75
266,83	307,22
267,05	343,34
267,27	383,07
267,48	262,91
267,70	328,31
267,92	292,30
268,14	324,83
268,35	238,43
268,57	363,03
268,79	261,24
269,00	304,12
269,22	279,88
269,44	341,83
269,65	311,11
269,87	284,85
270,09	312,29
270,31	342,11
270,52	312,29
270,74	263,75
270,96	305,43
271,17	254,90
271,39	370,91
271,61	373,04
271,82	324,58
272,04	361,52
272,26	371,04
272,47	289,48
272,69	265,01
272,91	314,54
273,12	287,94
273,34	259,30
273,56	282,93
273,77	267,80
273,99	246,09
274,21	195,53
274,42	249,49
274,64	254,82
274,86	278,88
275,08	248,65
275,29	259,45
275,51	281,11
275,72	219,54
275,94	242,76
276,16	242,07
276,37	212,25
276,59	261,78
276,81	308,65
277,02	279,88
277,24	211,48
277,46	228,96
277,67	272,28
277,89	233,11
278,11	261,60
278,32	192,25
278,54	338,25
278,76	213,78
278,97	191,69
279,19	160,48
279,41	276,78
279,62	270,82
279,84	229,14
280,05	267,39
280,27	278,73
280,49	200,88
280,70	194,17
280,92	135,75
281,14	157,41
281,35	176,69
281,57	146,30
281,79	184,39
282,00	195,35
282,22	89,24
282,43	151,06
282,65	212,94
282,87	217,29
283,08	163,33
283,30	93,28
283,52	158,05
283,73	130,89
283,95	129,12
284,16	105,16
284,38	115,28
284,60	204,77
284,81	109,13
285,03	144,25
285,24	189,74
285,46	173,92
285,68	109,05
285,89	220,75
286,11	204,28
286,32	236,36
286,54	156,18
286,76	159,64
286,97	188,23
287,19	209,28
287,40	179,79
287,62	180,43
287,84	178,66
288,05	148,30
288,27	154,24
288,48	175,89
288,70	112,02
288,92	228,27
289,13	144,94
289,35	135,50
289,56	110,95
289,78	116,84
289,99	37,94
290,21	105,04
290,43	99,79
290,64	133,78
290,86	138,52
291,07	171,47
291,29	94,41
291,51	153,44
291,72	91,88
291,94	123,80
292,15	178,10
292,37	47,03
292,58	153,21
292,80	117,27
293,01	236,23
293,23	140,82
293,45	198,52
293,66	185,06
293,88	273,53
294,09	325,50
294,31	316,36
294,52	263,39
294,74	325,58
294,96	205,56
295,17	270,13
295,39	213,35
295,60	54,55
295,82	263,68
296,03	79,28
296,25	180,99
296,46	196,71
296,68	229,17
296,89	139,44
297,11	209,56
297,32	117,43
297,54	132,25
297,76	174,95
297,97	126,77
298,19	100,91
298,40	172,64
298,62	172,00
298,83	138,16
299,05	139,83
299,26	110,51
299,48	128,61
299,69	134,04
299,91	157,85
300,12	115,04
300,34	98,23
300,55	119,83
300,77	153,11
300,98	144,20
301,20	150,22
301,41	116,45
301,63	156,23
301,84	201,83
302,06	214,42
302,28	191,49
302,49	201,83
302,71	137,93
302,92	169,55
303,14	171,62
303,35	166,14
303,57	131,17
303,78	119,86
304,00	101,55
304,21	101,17
304,43	135,96
304,64	63,03
304,86	141,57
305,07	152,96
305,29	181,09
305,50	167,32
305,71	121,93
305,93	137,34
306,14	137,16
306,36	152,55
306,57	106,57
306,79	162,33
307,00	208,28
307,22	163,02
307,43	179,86
307,65	164,25
307,86	141,03
308,08	173,10
308,29	142,33
308,51	183,19
308,72	181,53
308,94	172,00
309,15	113,51
309,37	196,55
309,58	246,86
309,80	141,75
310,01	165,40
310,22	144,23
310,44	179,25
310,65	142,92
310,87	98,30
311,08	202,65
311,30	228,94
311,51	197,17
311,73	167,88
311,94	196,94
312,16	169,42
312,37	191,02
312,58	118,50
312,80	223,66
313,01	139,90
313,23	193,28
313,44	158,69
313,66	227,22
313,87	101,58
314,09	145,46
314,30	225,10
314,51	163,10
314,73	185,29
314,94	177,07
315,16	114,46
315,37	207,61
315,59	265,37
315,80	175,36
316,01	221,64
316,23	271,89
316,44	205,56
316,66	194,89
316,87	269,54
317,09	257,74
317,30	278,52
317,51	325,68
317,73	141,36
317,94	227,07
318,16	181,37
318,37	207,69
318,58	237,82
318,80	213,04
319,01	181,25
319,23	188,23
319,44	224,38
319,66	191,33
319,87	212,27
320,08	170,75
320,30	255,48
320,51	247,09
320,73	227,25
320,94	111,03
321,15	271,38
321,37	88,27
321,58	204,28
321,80	128,71
322,01	210,12
322,22	195,66
322,44	191,28
322,65	237,51
322,86	212,58
323,08	203,29
323,29	266,24
323,51	181,40
323,72	182,76
323,93	269,69
324,15	258,48
324,36	247,09
324,58	174,72
324,79	228,02
325,00	182,58
325,22	258,22
325,43	174,61
325,64	254,20
325,86	200,80
326,07	274,68
326,28	162,69
326,50	232,03
326,71	229,78
326,93	304,30
327,14	368,05
327,35	425,03
327,57	368,51
327,78	445,36
327,99	365,49
328,21	517,70
328,42	537,75
328,63	706,11
328,85	1412,84
329,06	3970,78
329,27	10063,39
329,49	18311,27
329,70	26395,99
329,91	33114,76
330,13	36609,77
330,34	34730,79
330,56	28425,99
330,77	20127,77
330,98	12985,89
331,20	6607,21
331,41	3073,80
331,62	1339,01
331,84	675,32
332,05	449,86
332,26	316,90
332,48	362,70
332,69	292,40
332,90	243,81
333,11	291,02
333,33	310,34
333,54	227,30
333,75	263,06
333,97	296,26
334,18	242,66
334,39	212,73
334,61	232,06
334,82	250,70
335,03	235,31
335,25	278,73
335,46	252,85
335,67	251,85
335,89	286,25
336,10	199,37
336,31	229,19
336,53	194,28
336,74	169,80
336,95	171,72
337,16	227,32
337,38	254,43
337,59	190,13
337,80	267,31
338,02	213,48
338,23	226,48
338,44	168,70
338,65	178,17
338,87	290,89
339,08	161,46
339,29	155,93
339,51	65,56
339,72	229,73
339,93	266,52
340,14	310,83
340,36	197,19
340,57	109,69
340,78	200,91
341,00	151,34
341,21	160,13
341,42	163,40
341,63	285,28
341,85	267,54
342,06	279,16
342,27	243,79
342,49	313,49
342,70	226,30
342,91	130,66
343,12	175,10
343,34	188,80
343,55	261,70
343,76	254,95
343,97	214,91
344,19	135,70
344,40	251,57
344,61	195,12
344,82	151,78
345,04	151,34
345,25	161,69
345,46	145,53
345,67	244,76
345,89	186,01
346,10	157,85
346,31	174,59
346,52	187,85
346,74	189,13
346,95	274,81
347,16	221,49
347,37	150,81
347,59	213,27
347,80	172,52
348,01	103,86
348,22	172,87
348,43	137,78
348,65	240,71
348,86	136,93
349,07	177,58
349,28	187,77
349,50	193,79
349,71	296,93
349,92	279,78
350,13	236,41
350,34	258,58
350,56	241,74
350,77	250,52
350,98	243,17
351,19	254,41
351,41	269,74
351,62	182,09
351,83	123,80
352,04	136,09
352,25	179,68
352,47	231,45
352,68	156,39
352,89	260,19
353,10	275,76
353,31	312,47
353,53	334,66
353,74	380,74
353,95	411,87
354,16	320,94
354,37	282,36
354,59	255,05
354,80	261,96
355,01	231,34
355,22	289,05
355,43	285,31
355,65	290,48
355,86	212,99
356,07	223,84
356,28	215,75
356,49	256,58
356,70	178,12
356,92	192,82
357,13	188,90
357,34	161,74
357,55	112,23
357,76	124,31
357,98	215,68
358,19	304,07
358,40	231,16
358,61	235,41
358,82	209,97
359,03	250,80
359,25	258,81
359,46	288,30
359,67	193,25
359,88	224,56
360,09	224,56
360,30	233,72
360,51	201,37
360,73	223,41
360,94	269,54
361,15	249,88
361,36	284,82
361,57	247,14
361,78	196,61
362,00	270,43
362,21	164,02
362,42	135,58
362,63	166,06
362,84	162,74
363,05	185,93
363,26	227,48
363,48	185,39
363,69	263,75
363,90	291,48
364,11	332,62
364,32	218,31
364,53	246,04
364,74	272,61
364,95	266,31
365,17	266,26
365,38	274,58
365,59	232,14
365,80	253,44
366,01	158,46
366,22	224,25
366,43	245,53
366,64	252,98
366,86	223,38
367,07	206,15
367,28	208,30
367,49	198,93
367,70	289,81
367,91	166,63
368,12	183,93
368,33	240,07
368,54	282,82
368,76	202,16
368,97	207,54
369,18	296,55
369,39	240,71
369,60	302,79
369,81	281,47
370,02	378,23
370,23	393,31
370,44	288,48
370,65	301,08
370,87	296,73
371,08	271,97
371,29	229,83
371,50	256,28
371,71	297,44
371,92	245,32
372,13	269,28
372,34	285,85
372,55	240,10
372,76	238,77
372,97	236,67
373,18	220,05
373,40	305,68
373,61	222,95
373,82	211,07
374,03	319,79
374,24	258,74
374,45	289,81
374,66	243,53
374,87	308,14
375,08	319,00
375,29	365,95
375,50	298,80
375,71	249,85
375,92	246,35
376,13	345,39
376,34	305,43
376,56	339,86
376,77	285,72
376,98	306,27
377,19	224,00
377,40	303,82
377,61	234,13
377,82	232,16
378,03	175,64
378,24	283,59
378,45	200,83
378,66	212,99
378,87	210,51
379,08	166,68
379,29	190,05
379,50	210,22
379,71	314,18
379,92	178,45
380,13	197,91
380,34	218,77
380,55	304,61
380,76	259,20
380,97	237,59
381,18	243,17
381,39	229,81
381,60	230,06
381,81	136,91
382,02	140,70
382,24	179,48
382,45	196,84
382,66	171,34
382,87	198,27
383,08	186,70
383,29	267,21
383,50	134,78
383,71	235,85
383,92	273,40
384,13	295,09
384,34	258,30
384,55	228,43
384,76	296,52
384,97	308,50
385,18	306,25
385,39	331,87
385,60	291,94
385,81	303,48
386,02	314,18
386,23	395,28
386,44	293,17
386,65	300,36
386,86	252,00
387,07	182,37
387,28	268,34
387,49	189,67
387,70	182,12
387,91	186,85
388,12	180,27
388,32	135,09
388,53	168,09
388,74	174,15
388,95	262,83
389,16	216,52
389,37	312,06
389,58	318,79
389,79	276,35
390,00	257,76
390,21	265,65
390,42	292,68
390,63	178,58
390,84	305,61
391,05	263,65
391,26	283,08
391,47	284,13
391,68	228,86
391,89	161,48
392,10	218,13
392,31	174,61
392,52	190,85
392,73	228,76
392,94	208,84
393,15	224,12
393,36	125,36
393,57	206,72
393,78	328,34
393,98	373,70
394,19	381,31
394,40	349,87
394,61	462,35
394,82	410,52
395,03	286,82
395,24	320,92
395,45	291,63
395,66	256,25
395,87	282,39
396,08	296,32
396,29	234,98
396,50	262,19
396,71	203,93
396,92	203,26
397,12	213,12
397,33	170,77
397,54	198,86
397,75	205,16
397,96	231,70
398,17	272,18
398,38	254,84
398,59	208,56
398,80	268,08
399,01	239,46
399,22	240,79
399,43	225,10
399,63	228,30
399,84	221,69
400,05	374,55
400,26	164,38
400,47	286,49
400,68	275,55
400,89	316,56
401,10	287,28
401,31	258,07
401,52	322,48
401,72	315,28
401,93	289,38
402,14	311,88
402,35	315,21
402,56	262,88
402,77	251,85
402,98	238,31
403,19	304,74
403,40	322,58
403,60	361,90
403,81	285,72
404,02	407,96
404,23	333,82
404,44	414,76
404,65	389,17
404,86	319,36
405,07	338,48
405,27	312,11
405,48	321,35
405,69	313,34
405,90	278,52
406,11	196,37
406,32	195,97
406,53	262,11
406,74	230,45
406,94	250,95
407,15	220,11
407,36	201,49
407,57	170,57
407,78	200,88
407,99	202,44
408,20	156,18
408,40	259,07
408,61	216,62
408,82	179,53
409,03	260,76
409,24	339,30
409,45	276,63
409,65	236,62
409,86	292,37
410,07	373,47
410,28	363,36
410,49	326,80
410,70	319,89
410,90	361,49
411,11	220,36
411,32	412,46
411,53	306,56
411,74	365,79
411,95	295,32
412,15	286,59
412,36	433,63
412,57	421,70
412,78	359,80
412,99	298,31
413,20	400,28
413,40	318,79
413,61	271,36
413,82	350,23
414,03	307,60
414,24	264,06
414,44	284,64
414,65	309,06
414,86	449,58
415,07	507,51
415,28	648,36
415,48	815,42
415,69	886,87
415,90	883,57
416,11	844,02
416,32	702,73
416,53	683,13
416,73	520,26
416,94	350,97
417,15	403,35
417,36	451,81
417,56	298,31
417,77	359,19
417,98	425,16
418,19	281,42
418,40	457,26
418,60	518,16
418,81	608,81
419,02	643,01
419,23	835,44
419,44	1017,28
419,64	981,80
419,85	1087,80
420,06	1030,64
420,27	1002,89
420,47	826,02
420,68	567,39
420,89	451,76
421,10	393,41
421,30	389,60
421,51	325,50
421,72	360,49
421,93	321,53
422,14	361,80
422,34	244,12
422,55	278,57
422,76	266,93
422,97	305,45
423,17	262,83
423,38	267,98
423,59	292,89
423,80	300,72
424,00	294,93
424,21	201,01
424,42	318,66
424,63	281,67
424,83	412,31
425,04	369,91
425,25	436,81
425,46	494,28
425,66	418,66
425,87	577,68
426,08	532,98
426,28	547,81
426,49	610,27
426,70	632,41
426,91	636,15
427,11	592,35
427,32	502,03
427,53	510,84
427,74	396,90
427,94	328,98
428,15	272,76
428,36	356,96
428,56	327,75
428,77	317,15
428,98	418,12
429,19	347,57
429,39	466,50
429,60	523,64
429,81	443,05
430,01	441,16
430,22	413,41
430,43	453,14
430,64	320,99
430,84	348,67
431,05	399,66
431,26	344,90
431,46	253,05
431,67	249,93
431,88	379,51
432,08	361,36
432,29	375,19
432,50	413,74
432,70	375,39
432,91	425,11
433,12	538,18
433,33	528,66
433,53	526,97
433,74	468,98
433,95	443,08
434,15	440,70
434,36	430,69
434,57	382,41
434,77	313,44
434,98	254,49
435,19	285,59
435,39	267,21
435,60	284,18
435,81	242,97
436,01	284,49
436,22	222,13
436,43	246,99
436,63	242,63
436,84	326,40
437,05	327,24
437,25	220,41
437,46	240,89
437,67	375,14
437,87	327,62
438,08	224,38
438,29	314,26
438,49	320,02
438,70	324,30
438,91	437,75
439,11	386,66
439,32	350,28
439,52	339,94
439,73	310,09
439,94	223,56
440,14	281,01
440,35	288,00
440,56	264,09
440,76	209,48
440,97	300,28
441,18	323,14
441,38	306,84
441,59	320,48
441,79	281,11
442,00	286,69
442,21	231,19
442,41	320,94
442,62	309,78
442,83	236,75
443,03	195,17
443,24	245,58
443,44	298,03
443,65	254,33
443,86	269,82
444,06	222,38
444,27	196,30
444,48	247,06
444,68	291,12
444,89	123,21
445,09	174,82
445,30	278,04
445,51	262,37
445,71	190,90
445,92	295,68
446,12	328,01
446,33	193,28
446,54	234,88
446,74	260,94
446,95	274,74
447,15	254,49
447,36	303,64
447,57	221,59
447,77	233,72
447,98	240,28
448,18	220,08
448,39	276,60
448,59	295,01
448,80	328,42
449,01	412,49
449,21	422,55
449,42	444,54
449,62	461,10
449,83	505,49
450,04	451,30
450,24	338,81
450,45	488,24
450,65	359,70
450,86	320,66
451,06	403,58
451,27	370,04
451,47	324,96
451,68	336,58
451,89	359,42
452,09	338,58
452,30	336,35
452,50	303,66
452,71	262,55
452,91	370,63
453,12	308,30
453,33	233,26
453,53	264,37
453,74	307,07
453,94	262,19
454,15	299,26
454,35	339,53
454,56	340,30
454,76	230,40
454,97	122,08
455,17	337,99
455,38	302,82
455,58	334,38
455,79	327,47
456,00	310,65
456,20	382,36
456,41	277,01
456,61	250,54
456,82	271,82
457,02	210,92
457,23	238,46
457,43	246,22
457,64	259,81
457,84	293,12
458,05	251,23
458,25	255,33
458,46	250,13
458,66	334,82
458,87	363,77
459,07	260,55
459,28	304,61
459,48	304,07
459,69	333,08
459,89	350,61
460,10	233,60
460,30	319,51
460,51	271,87
460,71	290,43
460,92	339,71
461,12	309,04
461,33	355,55
461,53	337,51
461,74	330,75
461,94	353,12
462,15	276,12
462,35	370,38
462,56	273,25
462,76	377,57
462,97	307,04
463,17	338,73
463,38	255,77
463,58	288,71
463,79	297,06
463,99	311,09
464,20	278,63
464,40	316,67
464,61	329,75
464,81	286,31
465,02	277,55
465,22	336,38
465,43	421,24
465,63	550,60
465,83	664,87
466,04	794,05
466,24	1063,10
466,45	1197,27
466,65	1217,47
466,86	1251,80
467,06	1021,89
467,27	862,37
467,47	744,56
467,68	583,26
467,88	476,05
468,08	396,00
468,29	448,07
468,49	373,75
468,70	310,86
468,90	259,99
469,11	258,17
469,31	344,08
469,52	279,57
469,72	308,24
469,92	345,31
470,13	465,53
470,33	366,33
470,54	265,31
470,74	204,57
470,95	359,85
471,15	245,14
471,35	406,32
471,56	259,17
471,76	259,20
471,97	282,98
472,17	265,14
472,38	312,88
472,58	270,41
472,78	311,21
472,99	250,47
473,19	294,86
473,40	340,76
473,60	387,78
473,80	359,14
474,01	405,88
474,21	382,18
474,42	469,62
474,62	503,13
474,83	652,89
475,03	574,15
475,23	515,04
475,44	479,05
475,64	473,39
475,85	424,26
476,05	377,31
476,25	360,95
476,46	290,61
476,66	360,37
476,86	273,51
477,07	265,72
477,27	345,39
477,48	368,30
477,68	345,75
477,88	327,19
478,09	387,12
478,29	301,26
478,50	386,25
478,70	366,77
478,90	339,83
479,11	369,22
479,31	404,88
479,51	341,06
479,72	409,67
479,92	269,23
480,12	301,38
480,33	356,22
480,53	306,27
480,74	385,66
480,94	389,45
481,14	396,46
481,35	361,57
481,55	386,50
481,75	381,77
481,96	404,06
482,16	248,91
482,36	335,00
482,57	407,85
482,77	302,61
482,97	372,14
483,18	381,46
483,38	343,67
483,58	369,74
483,79	425,64
483,99	407,70
484,19	337,71
484,40	404,96
484,60	384,33
484,80	406,24
485,01	443,05
485,21	405,14
485,41	311,65
485,62	426,92
485,82	385,09
486,02	423,34
486,23	363,34
486,43	292,91
486,63	433,71
486,84	381,10
487,04	428,23
487,24	421,70
487,45	383,02
487,65	457,03
487,85	294,32
488,06	339,96
488,26	387,09
488,46	354,55
488,67	451,22
488,87	355,35
489,07	423,42
489,27	437,88
489,48	439,42
489,68	349,41
489,88	333,74
490,09	357,47
490,29	337,58
490,49	310,88
490,70	419,40
490,90	309,60
491,10	418,20
491,30	388,65
491,51	460,59
491,71	382,41
491,91	412,49
492,12	389,09
492,32	456,31
492,52	439,08
492,72	410,82
492,93	447,97
493,13	468,22
493,33	468,11
493,53	503,44
493,74	443,59
493,94	450,35
494,14	466,48
494,34	483,88
494,55	552,18
494,75	469,98
494,95	375,96
495,16	441,13
495,36	429,54
495,56	457,52
495,76	471,75
495,97	458,82
496,17	473,62
496,37	489,23
496,57	596,62
496,78	980,64
496,98	1746,38
497,18	3069,75
497,38	5073,71
497,59	7206,21
497,79	9117,53
497,99	10375,98
498,19	10537,82
498,39	9739,22
498,60	7860,82
498,80	6024,48
499,00	4219,35
499,20	2979,51
499,41	2176,45
499,61	1657,29
499,81	1235,13
500,01	939,40
500,22	783,22
500,42	717,05
500,62	578,60
500,82	627,91
501,02	555,38
501,23	497,73
501,43	484,06
501,63	525,12
501,83	466,27
502,03	379,00
502,24	463,76
502,44	457,72
502,64	441,87
502,84	481,84
503,05	508,28
503,25	511,63
503,45	508,23
503,65	532,16
503,85	523,13
504,06	495,17
504,26	519,57
504,46	509,51
504,66	491,59
504,86	561,96
505,06	482,40
505,27	483,58
505,47	545,81
505,67	522,44
505,87	540,92
506,07	437,42
506,28	454,01
506,48	473,70
506,68	494,79
506,88	487,93
507,08	518,32
507,28	480,61
507,49	521,44
507,69	524,74
507,89	494,51
508,09	546,94
508,29	526,23
508,49	461,59
508,70	561,19
508,90	486,06
509,10	550,24
509,30	489,85
509,50	552,21
509,70	529,12
509,91	548,50
510,11	491,56
510,31	610,47
510,51	436,55
510,71	586,15
510,91	504,90
511,11	543,66
511,32	449,73
511,52	518,96
511,72	521,23
511,92	552,52
512,12	560,61
512,32	573,69
512,52	540,31
512,73	532,65
512,93	533,50
513,13	568,62
513,33	569,54
513,53	543,51
513,73	559,84
513,93	810,15
514,13	1048,28
514,34	1503,34
514,54	2001,63
514,74	2550,34
514,94	2979,26
515,14	3203,69
515,34	3235,33
515,54	2748,76
515,74	2307,45
515,94	1873,46
516,15	1437,47
516,35	1172,13
516,55	1071,68
516,75	827,33
516,95	764,63
517,15	703,50
517,35	706,65
517,55	696,64
517,75	602,67
517,95	667,82
518,16	697,54
518,36	716,07
518,56	699,64
518,76	583,44
518,96	700,00
519,16	756,62
519,36	629,88
519,56	570,90
519,76	709,47
519,96	681,59
520,16	695,39
520,37	694,80
520,57	709,83
520,77	621,53
520,97	639,40
521,17	600,46
521,37	643,09
521,57	651,79
521,77	640,71
521,97	709,44
522,17	734,76
522,37	682,10
522,57	705,35
522,77	713,79
522,97	679,26
523,17	722,65
523,37	679,93
523,58	563,29
523,78	751,91
523,98	644,09
524,18	612,57
524,38	636,10
524,58	671,35
524,78	699,25
524,98	714,97
525,18	650,41
525,38	731,36
525,58	712,59
525,78	743,95
525,98	803,37
526,18	747,66
526,38	755,11
526,58	789,08
526,78	706,17
526,98	721,47
527,18	717,20
527,38	755,52
527,58	744,92
527,78	668,43
527,98	764,25
528,18	692,57
528,38	796,97
528,58	724,29
528,78	760,13
528,98	791,82
529,18	735,27
529,38	835,03
529,58	762,84
529,78	729,41
529,98	715,25
530,18	732,66
530,38	736,83
530,58	812,45
530,78	738,24
530,98	705,17
531,18	751,83
531,38	749,27
531,58	779,23
531,78	744,85
531,98	897,37
532,18	810,05
532,38	832,47
532,58	821,41
532,78	795,48
532,98	791,87
533,18	826,82
533,38	768,78
533,58	910,09
533,78	880,70
533,98	933,69
534,18	958,17
534,38	854,03
534,58	874,25
534,78	760,56
534,98	831,07
535,18	852,36
535,38	724,11
535,58	802,93
535,78	894,32
535,98	855,10
536,18	923,22
536,38	869,16
536,58	856,84
536,78	871,21
536,98	849,32
537,18	872,95
537,38	820,57
537,58	828,38
537,78	895,86
537,98	920,25
538,17	863,04
538,37	914,55
538,57	882,96
538,77	889,71
538,97	871,26
539,17	904,77
539,37	925,84
539,57	950,05
539,77	983,66
539,97	938,38
540,17	999,00
540,37	946,85
540,57	921,02
540,77	947,54
540,97	938,15
541,16	929,06
541,36	966,26
541,56	1011,29
541,76	900,03
541,96	904,95
542,16	889,02
542,36	852,54
542,56	911,29
542,76	916,41
542,96	895,50
543,16	987,86
543,36	933,75
543,55	956,45
543,75	1008,42
543,95	980,08
544,15	1062,84
544,35	1011,36
544,55	1016,07
544,75	1044,62
544,95	1109,08
545,15	1056,19
545,35	995,42
545,54	1050,35
545,74	950,18
545,94	1007,17
546,14	1068,89
546,34	1022,81
546,54	1015,77
546,74	980,39
546,94	1129,02
547,14	1075,75
547,33	1073,65
547,53	1039,65
547,73	1075,29
547,93	1030,61
548,13	987,86
548,33	975,01
548,53	1130,94
548,72	1143,41
548,92	1101,19
549,12	1191,53
549,32	1218,21
549,52	1188,59
549,72	1164,76
549,92	1227,73
550,12	1179,76
550,31	1154,98
550,51	1144,87
550,71	1172,41
550,91	1180,19
551,11	1131,55
551,31	1159,12
551,50	1186,62
551,70	1177,81
551,90	1164,96
552,10	1212,70
552,30	1268,13
552,50	1174,87
552,70	1311,37
552,89	1259,73
553,09	1245,86
553,29	1267,62
553,49	1229,63
553,69	1283,46
553,88	1280,11
554,08	1325,52
554,28	1320,56
554,48	1304,04
554,68	1405,65
554,88	1360,67
555,07	1339,17
555,27	1448,27
555,47	1418,73
555,67	1445,48
555,87	1496,83
556,06	1385,91
556,26	1464,81
556,46	1487,29
556,66	1459,48
556,86	1427,33
557,06	1493,81
557,25	1431,35
557,45	1547,98
557,65	1530,19
557,85	1518,54
558,05	1572,12
558,24	1578,91
558,44	1528,45
558,64	1502,39
558,84	1516,29
559,03	1579,11
559,23	1502,95
559,43	1521,10
559,63	1538,33
559,83	1610,06
560,02	1609,22
560,22	1661,57
560,42	1713,20
560,62	1703,22
560,82	1745,28
561,01	1804,13
561,21	1808,28
561,41	1712,92
561,61	1767,35
561,80	1796,45
562,00	1962,34
562,20	1944,39
562,40	1938,94
562,59	1900,80
562,79	1852,03
562,99	1847,11
563,19	1811,25
563,38	1857,48
563,58	1948,57
563,78	2056,03
563,98	2135,70
564,17	2047,05
564,37	2148,93
564,57	2057,16
564,77	2214,16
564,96	2150,32
565,16	2170,49
565,36	2193,73
565,56	2334,61
565,75	2295,47
565,95	2333,05
566,15	2412,25
566,35	2452,37
566,54	2472,23
566,74	2538,00
566,94	2995,33
567,14	5211,08
567,33	10546,86
567,53	18304,44
567,73	31530,81
567,92	50081,80
568,12	63829,04
568,32	63855,67
568,52	63775,79
568,71	63896,62
568,91	63806,51
569,11	63824,95
569,30	63816,75
569,50	63898,67
569,70	63802,42
569,90	47825,98
570,09	20279,78
570,29	13320,19
570,49	10066,76
570,68	7581,91
570,88	5836,15
571,08	4773,30
571,27	4091,89
571,47	3742,30
571,67	3607,80
571,87	3581,95
572,06	3553,74
572,26	3568,36
572,46	3568,56
572,65	3708,00
572,85	3804,23
573,05	4015,73
573,24	4045,79
573,44	4330,89
573,64	4469,46
573,83	4692,00
574,03	4869,07
574,23	5158,30
574,42	5294,82
574,62	5393,02
574,82	5543,16
575,01	5624,75
575,21	5616,30
575,41	5797,11
575,60	5873,86
575,80	5868,61
576,00	5861,54
576,19	6014,12
576,39	6021,92
576,59	6117,31
576,78	6174,47
576,98	6126,75
577,18	6169,05
577,37	6182,87
577,57	6260,54
577,77	6198,84
577,96	6174,19
578,16	6251,89
578,35	6502,89
578,55	6571,88
578,75	6798,57
578,94	6852,15
579,14	6940,28
579,34	6987,39
579,53	7131,13
579,73	7140,76
579,93	7138,63
580,12	7244,56
580,32	7404,10
580,51	7562,43
580,71	7692,89
580,91	7884,07
581,10	8216,60
581,30	8477,18
581,50	8707,27
581,69	9104,83
581,89	9464,23
582,08	9802,63
582,28	10101,99
582,48	10586,49
582,67	10926,48
582,87	11396,20
583,06	11838,59
583,26	12250,10
583,46	12947,41
583,65	13625,55
583,85	14807,84
584,04	16311,82
584,24	18072,56
584,44	20624,35
584,63	23935,10
584,83	26466,49
585,02	28768,71
585,22	30865,71
585,42	32704,14
585,61	33111,41
585,81	33212,24
586,00	33854,20
586,20	34526,47
586,39	35202,36
586,59	37131,47
586,79	40331,42
586,98	44591,09
587,18	60264,09
587,37	63798,32
587,57	63798,32
587,76	63634,48
587,96	63798,32
588,16	63804,47
588,35	63781,94
588,55	63898,67
588,74	63755,32
588,94	63849,52
589,13	63712,31
589,33	63884,34
589,52	63861,81
589,72	63810,61
589,92	63824,95
590,11	63681,59
590,31	63849,52
590,50	63724,60
590,70	63747,12
590,89	63872,05
591,09	63781,94
591,28	63898,67
591,48	63790,13
591,67	63751,22
591,87	63798,32
592,06	63728,69
592,26	63753,27
592,46	63687,73
592,65	63808,56
592,85	63855,67
593,04	63786,03
593,24	63706,16
593,43	63849,52
593,63	63829,04
593,82	63863,86
594,02	63769,65
594,21	63722,55
594,41	63724,60
594,60	63792,18
594,80	63798,32
594,99	63816,75
595,19	63702,07
595,38	63710,26
595,58	63810,61
595,77	63718,45
595,97	63822,90
596,16	63878,19
596,36	63751,22
596,55	63788,08
596,75	63734,84
596,94	63906,86
597,14	63738,93
597,33	63716,40
597,53	63726,64
597,72	63644,72
597,92	63826,99
598,11	63814,71
598,31	63673,40
598,50	63693,88
598,70	63761,46
598,89	63722,55
599,09	63861,81
599,28	63740,98
599,48	63638,58
599,67	63558,71
599,87	63597,62
600,06	63736,88
600,26	63775,79
600,45	63710,26
600,64	63669,30
600,84	63747,12
601,03	63749,17
601,23	63761,46
601,42	63751,22
601,62	63566,90
601,81	63603,77
602,01	63654,96
602,20	63706,16
602,40	63663,16
602,59	63745,08
602,78	63652,92
602,98	63704,12
603,17	63669,30
603,37	63642,68
603,56	63585,33
603,76	63665,20
603,95	63697,97
604,15	63693,88
604,34	63650,87
604,53	63720,50
604,73	63765,56
604,92	63648,82
605,12	63605,81
605,31	63663,16
605,51	63681,59
605,70	63579,19
605,89	63560,76
606,09	63687,73
606,28	63616,05
606,48	63452,22
606,67	63659,06
606,87	63708,21
607,06	63726,64
607,25	63652,92
607,45	63589,43
607,64	63726,64
607,84	63654,96
608,03	63597,62
608,22	63708,21
608,42	63675,44
608,61	63730,74
608,81	63542,33
609,00	63683,64
609,19	63642,68
609,39	63693,88
609,58	63695,92
609,78	63599,67
609,97	63695,92
610,16	63650,87
610,36	63732,79
610,55	63728,69
610,75	63712,31
610,94	63622,20
611,13	63628,34
611,33	63640,63
611,52	63616,05
611,71	63611,96
611,91	63581,24
612,10	63675,44
612,30	63573,05
612,49	63661,11
612,68	63724,60
612,88	63732,79
613,07	63556,66
613,26	63702,07
613,46	63630,39
613,65	63667,25
613,84	63577,14
614,04	63566,90
614,23	63679,54
614,43	63622,20
614,62	63665,20
614,81	63681,59
615,01	63628,34
615,20	63609,91
615,39	63654,96
615,59	63644,72
615,78	63702,07
615,97	63566,90
616,17	63597,62
616,36	63616,05
616,55	63632,44
616,75	63632,44
616,94	63683,64
617,13	63714,36
617,33	63564,85
617,52	63614,01
617,71	63515,70
617,91	63642,68
618,10	63489,08
618,29	63554,61
618,49	63581,24
618,68	63579,19
618,87	63648,82
619,07	63636,53
619,26	63626,29
619,45	63515,70
619,65	63519,80
619,84	63634,48
620,03	63609,91
620,22	63632,44
620,42	63519,80
620,61	63525,94
620,80	63659,06
621,00	63585,33
621,19	63609,91
621,38	63573,05
621,58	63632,44
621,77	63536,18
621,96	63530,04
622,15	63521,85
622,35	63568,95
622,54	63527,99
622,73	63652,92
622,93	63583,29
623,12	63654,96
623,31	63554,61
623,50	63695,92
623,70	57754,41
623,89	63614,01
624,08	2242,47
624,28	5973,28
624,47	2131,58
624,66	2112,25
624,85	2076,15
625,05	2079,87
625,24	2083,48
625,43	2087,55
625,62	2055,52
625,82	1995,08
626,01	2066,91
626,20	2032,74
626,39	1982,13
626,59	1905,46
626,78	1936,43
626,97	1835,34
627,17	1910,45
627,36	1838,92
627,55	1918,20
627,74	1811,07
627,93	1876,43
628,13	1830,88
628,32	1929,11
628,51	1918,74
628,70	1882,77
628,90	1844,58
629,09	1848,83
629,28	1803,70
629,47	1839,00
629,67	1878,50
629,86	1742,00
630,05	1695,62
630,24	1763,92
630,44	1764,48
630,63	1760,79
630,82	1780,20
631,01	1743,90
631,20	1597,26
631,40	1543,20
631,59	1685,81
631,78	1643,32
631,97	1601,26
632,16	1579,19
632,36	1556,92
632,55	1613,95
632,74	1632,82
632,93	1584,97
633,13	1579,50
633,32	1525,22
633,51	1541,99
633,70	1530,78
633,89	1553,77
634,09	1396,48
634,28	1496,09
634,47	1418,94
634,66	1488,03
634,85	1433,58
635,04	1470,83
635,24	1550,80
635,43	1482,17
635,62	1497,17
635,81	1400,27
636,00	1399,22
636,20	1375,62
636,39	1470,44
636,58	1388,09
636,77	1366,15
636,96	1415,12
637,15	1339,37
637,35	1387,96
637,54	1316,79
637,73	1296,52
637,92	1275,91
638,11	1269,00
638,30	1283,44
638,50	1261,50
638,69	1368,94
638,88	1307,68
639,07	1261,32
639,26	1303,92
639,45	1161,02
639,64	1230,57
639,84	1296,72
640,03	1167,85
640,22	1298,16
640,41	1199,34
640,60	1181,73
640,79	1240,33
640,98	1266,92
641,18	1264,49
641,37	1328,36
641,56	1258,25
641,75	1277,37
641,94	1252,97
642,13	1253,25
642,32	1153,36
642,52	1074,06
642,71	1080,46
642,90	1107,77
643,09	1096,53
643,28	1078,67
643,47	1174,33
643,66	1087,11
643,85	1041,11
644,04	1114,81
644,24	1136,75
644,43	1106,18
644,62	1118,86
644,81	1017,20
645,00	1064,71
645,19	1015,05
645,38	1034,58
645,57	1036,81
645,76	976,73
645,96	982,49
646,15	1014,67
646,34	968,74
646,53	1062,03
646,72	928,78
646,91	1044,54
647,10	931,31
647,29	1006,78
647,48	955,45
647,67	907,35
647,86	854,62
648,05	1020,48
648,25	970,63
648,44	900,95
648,63	889,51
648,82	896,60
649,01	951,49
649,20	847,78
649,39	833,70
649,58	828,17
649,77	913,11
649,96	806,98
650,15	777,74
650,34	863,58
650,53	811,79
650,72	755,85
650,91	831,19
651,11	848,27
651,30	851,67
651,49	808,77
651,68	773,34
651,87	785,17
652,06	720,04
652,25	756,52
652,44	748,84
652,63	767,68
652,82	707,91
653,01	760,13
653,20	704,63
653,39	644,73
653,58	752,07
653,77	666,69
653,96	736,96
654,15	695,21
654,34	702,33
654,53	769,86
654,72	702,91
654,91	627,73
655,10	774,64
655,29	698,61
655,48	689,45
655,67	704,14
655,86	788,03
656,05	649,46
656,24	674,17
656,43	583,21
656,62	679,00
656,81	692,19
657,00	638,25
657,19	578,30
657,38	728,72
657,57	654,91
657,76	555,08
657,95	701,30
658,14	596,42
658,33	562,40
658,52	618,38
658,71	636,94
658,90	537,64
659,09	556,95
659,28	608,04
659,47	490,67
659,66	608,37
659,85	526,71
660,04	507,13
660,23	491,97
660,42	469,01
660,61	520,85
660,80	536,95
660,99	511,20
661,18	504,65
661,37	523,77
661,56	477,41
661,75	413,15
661,94	448,20
662,13	463,53
662,32	446,15
662,51	468,01
662,70	464,10
662,89	478,00
663,08	480,25
663,27	484,73
663,46	400,86
663,65	427,21
663,83	420,96
664,02	401,97
664,21	389,27
664,40	428,56
664,59	404,45
664,78	439,70
664,97	352,56
665,16	380,08
665,35	298,24
665,54	448,91
665,73	442,62
665,92	406,52
666,11	390,16
666,30	304,15
666,49	354,73
666,67	398,82
666,86	285,28
667,05	429,02
667,24	467,60
667,43	505,31
667,62	466,86
667,81	457,44
668,00	429,33
668,19	432,07
668,38	258,81
668,57	312,16
668,76	364,92
668,94	358,88
669,13	272,33
669,32	302,72
669,51	360,06
669,70	220,41
669,89	304,66
670,08	226,71
670,27	250,80
670,46	238,82
670,64	244,12
670,83	239,95
671,02	259,43
671,21	273,40
671,40	266,13
671,59	203,36
671,78	241,56
671,97	260,42
672,16	237,44
672,34	161,89
672,53	147,02
672,72	247,37
672,91	246,11
673,10	200,96
673,29	238,13
673,48	238,95
673,66	134,81
673,85	65,23
674,04	96,05
674,23	157,67
674,42	255,64
674,61	263,52
674,80	300,23
674,98	393,95
675,17	341,60
675,36	437,06
675,55	452,96
675,74	378,72
675,93	328,44
676,12	267,80
676,30	216,06
676,49	171,88
676,68	155,75
676,87	153,16
677,06	125,85
677,25	112,41
677,43	122,60
677,62	128,31
677,81	117,12
678,00	95,46
678,19	87,81
678,37	61,98
678,56	66,76
678,75	66,07
678,94	14,28
679,13	8,09
679,32	119,42
679,50	64,49
679,69	83,89
679,88	14,49
680,07	99,74
680,26	0,03
680,44	51,46
680,63	46,92
680,82	49,87
681,01	4,35
681,20	31,90
681,38	-32,95
681,57	-16,49
681,76	27,39
681,95	-65,54
682,14	52,45
682,32	2,28
682,51	-15,79
682,70	-44,90
682,89	-21,84
683,07	0,64
683,26	6,22
683,45	-21,63
683,64	35,40
683,83	-13,16
684,01	-59,57
684,20	12,49
684,39	-70,89
684,58	-60,13
684,76	-15,82
684,95	-30,85
685,14	-48,08
685,33	-29,49
685,52	28,62
685,70	-42,78
685,89	27,31
686,08	-17,82
686,27	59,83
686,45	94,39
686,64	115,89
686,83	263,68
687,02	288,76
687,20	166,09
687,39	264,62
687,58	204,75
687,76	157,34
687,95	139,70
688,14	118,96
688,33	25,32
688,51	4,07
688,70	34,15
688,89	37,09
689,08	-72,42
689,26	27,06
689,45	-67,45
689,64	-26,55
689,83	-6,45
690,01	79,33
690,20	-61,31
690,39	-72,91
690,57	-8,32
690,76	-46,46
690,95	-45,08
691,14	-64,00
691,32	-110,77
691,51	-110,51
691,70	-45,23
691,88	-81,20
692,07	-45,75
692,26	-73,96
692,44	1,89
692,63	-38,60
692,82	-28,49
693,01	-21,09
693,19	4,86
693,38	31,92
693,57	83,28
693,75	77,29
693,94	100,91
694,13	106,85
694,31	94,97
694,50	144,92
694,69	7,14
694,87	155,26
695,06	104,04
695,25	436,09
695,43	1740,72
695,62	4212,57
695,81	7320,62
695,99	10811,02
696,18	14728,71
696,37	18368,46
696,55	20021,51
696,74	18558,56
696,93	16434,59
697,11	13524,84
697,30	9617,08
697,49	6260,21
697,67	4136,74
697,86	2938,63
698,05	1999,89
698,23	1474,33
698,42	872,54
698,61	666,23
698,79	502,34
698,98	263,47
699,17	208,15
699,35	131,66
699,54	36,86
699,72	31,05
699,91	-69,14
700,10	-41,75
700,28	-62,23
700,47	17,15
700,66	-24,91
700,84	-61,67
701,03	-51,79
701,21	-84,07
701,40	-9,50
701,59	-104,32
701,77	-68,20
701,96	-55,32
702,15	-6,22
702,33	44,93
702,52	82,56
702,70	84,56
702,89	100,27
703,08	180,02
703,26	151,06
703,45	84,63
703,63	2,43
703,82	-38,73
704,01	-54,86
704,19	-103,42
704,38	-33,36
704,56	-30,05
704,75	-108,16
704,94	-107,44
705,12	-77,93
705,31	-32,05
705,49	417,79
705,68	1472,69
705,86	3197,24
706,05	5030,12
706,24	7437,71
706,42	9744,36
706,61	11659,55
706,79	11826,61
706,98	10656,43
707,17	9341,55
707,35	7433,38
707,54	5045,53
707,72	3296,31
707,91	2154,10
708,09	1541,38
708,28	1018,86
708,46	658,27
708,65	471,62
708,84	195,12
709,02	151,37
709,21	83,61
709,39	54,83
709,58	-45,52
709,76	-11,65
709,95	-43,85
710,13	-138,95
710,32	-101,60
710,50	-74,62
710,69	-54,45
710,88	-57,24
711,06	-156,72
711,25	-40,50
711,43	-46,21
711,62	-53,04
711,80	-95,20
711,99	-89,19
712,17	-152,62
712,36	-84,53
712,54	-90,93
712,73	-99,40
712,91	-87,19
713,10	-120,96
713,28	-104,14
713,47	-103,45
713,65	-18,87
713,84	211,71
714,02	420,24
714,21	572,61
714,39	923,15
714,58	1087,27
714,76	1131,25
714,95	1044,95
715,13	912,78
715,32	739,44
715,50	449,17
715,69	210,02
715,87	231,70
716,06	85,22
716,24	40,75
716,43	12,03
716,61	-132,91
716,80	-87,09
716,98	47,72
717,17	-120,19
717,35	-37,43
717,54	-123,57
717,72	-11,88
717,91	-49,07
718,09	-101,07
718,28	7,04
718,46	-124,11
718,65	-82,17
718,83	-35,43
719,01	-0,69
719,20	-117,55
719,38	-71,65
719,57	-68,27
719,75	37,02
719,94	-97,10
720,12	13,13
720,31	-64,74
720,49	-17,10
720,68	10,42
720,86	-43,44
721,04	-64,10
721,23	-39,14
721,41	-52,81
721,60	-5,35
721,78	-143,10
721,97	-119,47
722,15	-145,66
722,34	-98,38
722,52	-121,44
722,70	-132,15
722,89	-54,17
723,07	-133,50
723,26	-56,65
723,44	-39,47
723,63	-75,26
723,81	-57,98
723,99	-82,10
724,18	-99,58
724,36	-134,73
724,55	-110,51
724,73	-69,17
724,91	-4,63
725,10	-56,55
725,28	-38,78
725,47	-11,80
725,65	-98,25
725,83	-103,45
726,02	56,27
726,20	454,52
726,39	1047,00
726,57	1575,07
726,75	2329,97
726,94	3114,76
727,12	3849,57
727,31	3976,57
727,49	3676,23
727,67	3279,26
727,86	2613,18
728,04	1933,59
728,23	1286,41
728,41	840,77
728,59	586,38
728,78	363,77
728,96	222,87
729,14	121,16
729,33	65,00
729,51	8,55
729,69	-5,79
729,88	-7,96
730,06	-30,95
730,25	-35,61
730,43	-108,90
730,61	-112,00
730,80	-25,91
730,98	44,18
731,16	-101,89
731,35	-88,45
731,53	-84,84
731,71	-10,55
731,90	-135,04
732,08	-3,74
732,26	-72,75
732,45	-16,33
732,63	-155,90
732,81	-42,57
733,00	-86,94
733,18	-75,98
733,36	-156,62
733,55	-126,95
733,73	-145,56
733,91	-121,01
734,10	7,60
734,28	-53,22
734,46	-77,41
734,65	-158,18
734,83	-62,98
735,01	-3,07
735,20	21,09
735,38	60,49
735,56	31,23
735,75	-49,51
735,93	-42,90
736,11	-33,77
736,30	-0,28
736,48	24,42
736,66	111,92
736,84	132,04
737,03	485,55
737,21	1518,62
737,39	3535,36
737,58	6220,55
737,76	9444,64
737,94	13097,09
738,12	16951,65
738,31	18871,37
738,49	18680,27
738,67	16716,01
738,86	14385,42
739,04	11186,24
739,22	7500,28
739,40	5007,87
739,59	3393,28
739,77	2203,87
739,95	1291,40
740,14	819,90
740,32	525,43
740,50	342,57
740,68	287,53
740,87	133,55
741,05	77,26
741,23	158,21
741,41	3,05
741,60	109,08
741,78	-58,14
741,96	-115,94
742,14	-127,26
742,33	-26,98
742,51	-120,42
742,69	-115,66
742,87	-62,41
743,06	-57,37
743,24	1,10
743,42	-80,84
743,60	-30,21
743,79	-100,96
743,97	-19,02
744,15	-117,50
744,33	-104,55
744,52	-46,16
744,70	-70,14
744,88	-127,56
745,06	-58,14
745,24	-55,81
745,43	-73,45
745,61	-103,76
745,79	-103,93
745,97	-121,09
746,16	-157,62
746,34	-201,96
746,52	-154,08
746,70	-131,68
746,88	-136,11
747,07	-51,56
747,25	-114,94
747,43	-92,77
747,61	-72,34
747,79	-106,57
747,98	-51,30
748,16	-41,88
748,34	-123,85
748,52	-14,31
748,70	21,45
748,89	11,55
749,07	417,91
749,25	1475,79
749,43	3265,90
749,61	5473,27
749,79	8182,81
749,98	11040,45
750,16	14366,65
750,34	16332,06
750,52	17454,58
750,70	18175,88
750,88	19063,16
751,07	19040,43
751,25	19113,64
751,43	18029,57
751,61	15901,12
751,79	13645,72
751,97	11171,13
752,16	8103,12
752,34	5467,10
752,52	3541,99
752,70	2326,93
752,88	1592,73
753,06	1045,64
753,25	792,67
753,43	585,16
753,61	440,75
753,79	257,53
753,97	296,80
754,15	256,82
754,33	32,03
754,52	-21,09
754,70	86,55
754,88	4,20
755,06	-57,47
755,24	-81,82
755,42	-127,59
755,60	-87,09
755,78	-28,54
755,97	-67,12
756,15	-141,90
756,33	-103,04
756,51	-54,14
756,69	-117,32
756,87	-143,13
757,05	-81,07
757,23	-85,76
757,41	-118,55
757,60	-56,75
757,78	-157,39
757,96	-137,09
758,14	-85,07
758,32	-70,78
758,50	-80,49
758,68	-74,01
758,86	-56,91
759,04	-76,06
759,22	-98,05
759,41	-79,87
759,59	-76,82
759,77	-93,59
759,95	13,57
760,13	-45,00
760,31	-34,66
760,49	54,40
760,67	74,90
760,85	65,51
761,03	17,89
761,21	66,05
761,39	115,28
761,57	41,01
761,76	172,13
761,94	437,06
762,12	1683,40
762,30	5814,75
762,48	14671,29
762,66	26599,79
762,84	39728,96
763,02	54491,84
763,20	63708,21
763,38	63775,79
763,56	63880,24
763,74	63786,03
763,92	63251,23
764,10	49839,19
764,28	31839,82
764,46	19676,93
764,64	12785,88
764,82	8410,19
765,00	5894,69
765,19	4475,12
765,37	4198,41
765,55	4523,71
765,73	5331,50
765,91	6348,78
766,09	7714,75
766,27	8679,39
766,45	8573,74
766,63	7512,23
766,81	6451,87
766,99	5239,63
767,17	3739,33
767,35	2418,70
767,53	1527,68
767,71	1023,27
767,89	672,50
768,07	485,91
768,25	353,40
768,43	224,84
768,61	443,21
768,79	799,17
768,97	1415,22
769,15	2041,90
769,33	2856,28
769,51	3724,79
769,69	4266,87
769,87	4098,09
770,05	3623,16
770,23	3081,14
770,41	2423,31
770,59	1727,41
770,77	1088,09
770,95	948,54
771,13	1924,78
771,31	4524,94
771,49	8478,23
771,67	13012,77
771,85	18274,67
772,03	24386,55
772,21	28537,91
772,38	28202,55
772,56	25478,78
772,74	22022,78
772,92	17877,77
773,10	12258,71
773,28	7876,44
773,46	4938,73
773,64	3378,79
773,82	2285,69
774,00	1647,46
774,18	1192,53
774,36	920,95
774,54	603,20
774,72	456,06
774,90	448,35
775,08	359,80
775,26	268,62
775,44	185,83
775,62	125,41
775,80	150,99
775,97	108,77
776,15	49,97
776,33	-12,57
776,51	-25,29
776,69	-8,35
776,87	-129,64
777,05	-206,31
777,23	-70,83
777,41	-122,57
777,59	-4,17
777,77	-46,00
777,95	-99,94
778,13	-115,71
778,30	-80,02
778,48	-237,62
778,66	-227,91
778,84	-125,72
779,02	-132,09
779,20	-128,77
779,38	-148,76
779,56	-92,34
779,74	-68,58
779,92	-115,48
780,09	-121,06
780,27	-30,36
780,45	-57,42
780,63	-129,20
780,81	-106,90
780,99	-107,88
781,17	-140,06
781,35	-168,27
781,52	-206,20
781,70	-111,00
781,88	-151,60
782,06	-167,73
782,24	-115,04
782,42	-183,63
782,60	-31,67
782,78	-68,86
782,95	-127,67
783,13	-115,97
783,31	-181,25
783,49	-82,74
783,67	-140,23
783,85	-125,36
784,03	-137,06
784,20	-98,05
784,38	-79,08
784,56	-83,58
784,74	-10,68
784,92	-82,10
785,10	-60,13
785,28	-81,07
785,45	-106,26
785,63	-25,91
785,81	-116,30
785,99	-83,30
786,17	-52,04
786,35	-145,46
786,52	-61,23
786,70	-29,34
786,88	-111,72
787,06	-138,55
787,24	-62,44
787,41	-94,87
787,59	-89,98
787,77	-44,11
787,95	-29,77
788,13	-65,87
788,31	-92,24
788,48	-87,06
788,66	-99,07
788,84	-62,80
789,02	-78,90
789,20	-43,80
789,37	-52,12
789,55	-11,67
789,73	-111,36
789,91	-26,21
790,09	-53,14
790,26	-148,63
790,44	-71,93
790,62	-107,24
790,80	-36,81
790,98	-58,83
791,15	1,59
791,33	-121,03
791,51	-74,14
791,69	-40,24
791,86	-45,82
792,04	-56,93
792,22	-45,62
792,40	4,22
792,58	-16,82
792,75	-20,27
792,93	-52,97
793,11	15,92
793,29	115,48
793,46	749,45
793,64	2307,19
793,82	4419,18
794,00	7010,58
794,17	9982,18
794,35	13283,46
794,53	15384,47
794,71	15808,50
794,88	14307,47
795,06	12296,36
795,24	10204,54
795,42	7570,24
795,59	5060,79
795,77	3616,28
795,95	2576,68
796,13	1852,77
796,30	1328,03
796,48	1102,63
796,66	801,73
796,83	631,08
797,01	550,98
797,19	415,61
797,37	370,25
797,54	313,24
797,72	290,40
797,90	226,22
798,08	244,17
798,25	216,93
798,43	104,09
798,61	186,08
798,78	89,78
798,96	157,62
799,14	288,74
799,31	824,59
799,49	1627,70
799,67	2772,26
799,85	4144,60
800,02	6065,24
800,20	8530,53
800,38	10859,18
800,55	12706,26
800,73	14642,39
800,91	16389,25
801,08	17818,92
801,26	17501,94
801,44	15897,38
801,61	13718,60
801,79	11544,20
801,97	9061,19
802,15	6631,02
802,32	4600,58
802,50	3457,46
802,68	2581,49
802,85	1898,72
803,03	1367,38
803,21	1128,81
803,38	888,59
803,56	687,35
803,74	675,86
803,91	485,85
804,09	469,19
804,26	399,53
804,44	325,76
804,62	332,36
804,79	262,81
804,97	192,05
805,15	280,98
805,32	265,83
805,50	89,29
805,68	182,58
805,85	109,21
806,03	72,27
806,21	85,63
806,38	100,43
806,56	111,20
806,73	164,94
806,91	56,42
807,09	117,96
807,26	211,04
807,44	81,23
807,62	134,71
807,79	222,18
807,97	223,66
808,14	155,34
808,32	171,70
808,50	254,18
808,67	326,65
808,85	660,88
809,02	1460,41
809,20	3367,45
809,38	5753,59
809,55	8552,04
809,73	11816,42
809,90	15250,15
810,08	18637,51
810,26	22842,66
810,43	28165,20
810,61	34967,22
810,78	42532,57
810,96	49682,65
811,14	55944,59
811,31	58344,79
811,49	55199,75
811,66	48895,28
811,84	42591,96
812,02	34521,15
812,19	25613,46
812,37	18860,21
812,54	14072,16
812,72	10758,59
812,89	8082,33
813,07	6192,01
813,25	4775,94
813,42	3817,00
813,60	3153,28
813,77	2559,42
813,95	2197,37
814,12	1946,72
814,30	1670,04
814,47	1541,43
814,65	1446,20
814,83	1283,39
815,00	1167,32
815,18	1093,82
815,35	1088,88
815,53	1006,65
815,70	1134,83
815,88	1088,06
816,05	1049,33
816,23	1195,27
816,40	1355,81
816,58	1811,25
816,75	3657,08
816,93	9267,31
817,10	20968,31
817,28	38255,57
817,46	57672,28
817,63	63808,56
817,81	63808,56
817,98	63857,71
818,16	63882,29
818,33	63878,19
818,51	63796,27
818,68	63826,99
818,86	63792,18
819,03	63812,66
819,21	63880,24
819,38	63833,14
819,56	63747,12
819,73	63771,70
819,91	63771,70
820,08	63863,86
820,26	63867,95
820,43	63788,08
820,61	63783,99
820,78	63771,70
820,96	63867,95
821,13	63839,28
821,31	63892,53
821,48	63818,80
821,66	63757,36
821,83	63738,93
822,00	63896,62
822,18	63859,76
822,35	63769,65
822,53	63841,33
822,70	63888,43
822,88	63872,05
823,05	63800,37
823,23	63835,19
823,40	63810,61
823,58	63845,43
823,75	48938,18
823,93	19265,86
824,10	1079,31
824,28	837,13
824,45	673,83
824,62	657,50
824,80	556,66
824,97	630,65
825,15	1075,59
825,32	2035,30
825,50	3187,25
825,67	4526,11
825,85	5926,74
826,02	7280,91
826,19	7963,32
826,37	7930,96
826,54	7404,10
826,72	6603,80
826,89	5513,49
827,07	4513,06
827,24	3483,06
827,41	2667,91
827,59	2112,56
827,76	1617,64
827,94	1245,19
828,11	901,75
828,28	814,58
828,46	591,12
828,63	483,27
828,81	476,36
828,98	314,70
829,15	284,74
829,33	298,98
829,50	212,14
829,68	135,35
829,85	179,58
830,02	161,84
830,20	136,22
830,37	142,51
830,55	29,49
830,72	60,36
830,89	130,28
831,07	105,62
831,24	40,14
831,42	11,32
831,59	61,72
831,76	6,78
831,94	35,02
832,11	-7,53
832,28	-8,88
832,46	6,96
832,63	16,33
832,81	-26,91
832,98	25,83
833,15	-53,66
833,33	44,39
833,50	78,44
833,67	-62,92
833,85	17,69
834,02	64,77
834,19	-9,29
834,37	-60,80
834,54	-49,66
834,71	-34,43
834,89	-4,02
835,06	-63,90
835,23	5,22
835,41	-18,51
835,58	4,20
835,75	26,32
835,93	-16,41
836,10	-6,07
836,27	-72,32
836,45	-27,29
836,62	-11,01
836,79	-74,19
836,97	-48,72
837,14	-28,72
837,31	-45,87
837,49	-28,72
837,66	-37,22
837,83	-67,94
838,01	25,65
838,18	-101,81
838,35	-86,99
838,53	37,04
838,70	90,88
838,87	23,24
839,04	104,50
839,22	127,46
839,39	398,48
839,56	911,50
839,74	1701,91
839,91	2904,76
840,08	4307,98
840,26	5701,42
840,43	7102,53
840,60	8157,55
840,77	8514,20
840,95	8363,75
841,12	8066,77
841,29	8014,67
841,46	8190,85
841,64	8896,07
841,81	9483,63
841,98	10624,09
842,16	11520,23
842,33	11991,16
842,50	11634,87
842,67	10694,03
842,85	9475,93
843,02	8324,89
843,19	6943,31
843,36	5299,55
843,54	4183,00
843,71	3265,49
843,88	2571,22
844,05	2009,01
844,23	1584,23
844,40	1250,26
844,57	1082,58
844,74	793,56
844,92	605,48
845,09	605,20
845,26	471,54
845,43	460,36
845,61	272,33
845,78	307,45
845,95	192,46
846,12	153,42
846,29	162,22
846,47	113,05
846,64	72,04
846,81	76,29
846,98	91,03
847,16	115,10
847,33	-5,66
847,50	9,98
847,67	-18,71
847,84	6,60
848,02	-16,64
848,19	-96,46
848,36	-74,88
848,53	-30,77
848,70	-60,62
848,88	-67,69
849,05	16,82
849,22	-118,14
849,39	-103,29
849,56	-39,73
849,74	-28,54
849,91	-50,74
850,08	-141,64
850,25	2,02
850,42	-12,67
850,60	10,47
850,77	-23,40
850,94	224,18
851,11	358,22
851,28	713,82
851,45	1132,12
851,63	1475,59
851,80	1885,23
851,97	2245,24
852,14	2417,42
852,31	2399,91
852,48	2304,66
852,66	2107,85
852,83	1810,92
853,00	1525,69
853,17	1219,80
853,34	872,87
853,51	695,00
853,68	527,22
853,86	496,40
854,03	314,08
854,20	222,41
854,37	216,60
854,54	126,54
854,71	65,87
854,88	86,09
855,06	34,82
855,23	4,38
855,40	27,70
855,57	82,76
855,74	-59,47
855,91	-40,37
856,08	-61,95
856,25	-45,03
856,43	-22,04
856,60	-52,25
856,77	-108,88
856,94	-17,48
857,11	-105,55
857,28	-87,14
857,45	-72,60
857,62	-32,90
857,79	-125,05
857,97	-103,65
858,14	-49,28
858,31	-181,40
858,48	-88,19
858,65	-81,36
858,82	-63,95
858,99	-58,65
859,16	-137,52
859,33	-4,45
859,50	-122,19
859,67	-125,00
859,85	11,08
860,02	-60,95
860,19	-128,33
860,36	3,48
860,53	-126,18
860,70	-107,95
860,87	-31,13
861,04	-92,72
861,21	-126,90
861,38	-140,18
861,55	-77,98
861,72	-30,85
861,89	-203,98
862,06	-79,49
862,23	-112,84
862,41	-120,68
862,58	-67,35
862,75	-134,53
862,92	-148,07
863,09	-85,71
863,26	-44,80
863,43	8,24
863,60	-99,12
863,77	-35,53
863,94	-82,69
864,11	-104,27
864,28	-89,98
864,45	-127,23
864,62	-120,50
864,79	-93,08
864,96	-89,55
865,13	-186,70
865,30	-122,03
865,47	-103,17
865,64	-43,44
865,81	-108,62
865,98	-56,04
866,15	-31,26
866,32	-33,95
866,49	38,83
866,66	263,96
866,83	178,02
867,00	162,71
867,17	247,11
867,34	270,59
867,51	130,87
867,68	213,22
867,85	100,20
868,02	42,50
868,19	73,47
868,36	49,10
868,53	-1,41
868,70	-10,70
868,87	-55,30
869,04	-131,84
869,21	-33,59
869,38	-23,58
869,55	-10,73
869,72	-136,45
869,89	-109,95
870,06	-92,52
870,23	-52,40
870,40	-103,14
870,57	-171,39
870,74	-88,93
870,91	-71,55
871,08	-53,14
871,25	-86,86
871,42	-42,96
871,59	-143,18
871,76	-124,75
871,93	-112,64
872,10	-114,07
872,27	-107,01
872,44	-113,07
872,60	-96,46
872,77	-76,93
872,94	-165,04
873,11	-102,53
873,28	-149,50
873,45	-92,67
873,62	-114,02
873,79	-146,30
873,96	-140,85
874,13	-51,12
874,30	-69,02
874,47	-101,58
874,64	-120,42
874,81	-95,90
874,97	-99,07
875,14	-61,82
875,31	-66,48
875,48	-95,77
875,65	-86,89
875,82	-168,19
875,99	-120,09
876,16	-87,63
876,33	-145,94
876,50	-68,79
876,67	-159,97
876,83	-97,97
877,00	-108,29
877,17	-44,13
877,34	-97,87
877,51	-130,35
877,68	-122,42
877,85	-30,16
878,02	-152,19
878,19	-53,81
878,35	-168,34
878,52	-109,49
878,69	-73,93
878,86	-13,31
879,03	-167,81
879,20	-160,02
879,37	-67,79
879,54	-30,92
879,70	-143,87
879,87	-23,76
880,04	-131,56
880,21	-58,21
880,38	-92,59
880,55	-92,16
880,72	-60,98
880,89	-96,10
881,05	-128,61
881,22	-108,80
881,39	-65,66
881,56	-132,55
881,73	-59,57
881,90	-181,12
882,06	-110,85
882,23	-62,54
882,40	-108,93
882,57	-92,54
882,74	-71,70
882,91	-91,24
883,07	-121,34
883,24	-81,71
883,41	-30,57
883,58	-24,63
883,75	-98,99
883,92	-102,88
884,08	-128,20
884,25	-62,64
884,42	-81,89
884,59	-31,56
884,76	-188,11
884,92	-62,00
885,09	-165,32
885,26	-136,73
885,43	-102,73
885,60	-127,28
885,76	-72,19
885,93	-90,78
886,10	-82,76
886,27	-86,60
886,44	-41,98
886,60	-112,77
886,77	-93,28
886,94	-116,48
887,11	-18,10
887,28	-117,53
887,44	-137,57
887,61	-90,93
887,78	-109,85
887,95	-141,21
888,12	-108,13
888,28	-102,65
888,45	-142,13
888,62	-82,12
888,79	-107,83
888,95	-105,93
889,12	-92,47
889,29	-114,02
889,46	-122,08
889,62	-132,63
889,79	-217,85
889,96	-111,79
890,13	-129,07
890,29	-100,15
890,46	-124,21
890,63	-112,74
890,80	-111,97
890,96	-101,99
891,13	-29,49
891,30	-81,10
891,47	-14,08
891,63	-183,06
891,80	-62,90
891,97	-112,89
892,14	-133,55
892,30	-59,78
892,47	-108,59
892,64	-137,62
892,80	-131,45
892,97	-100,79
893,14	-90,29
893,31	-100,27
893,47	-75,42
893,64	-107,67
893,81	-146,35
893,97	-88,40
894,14	-82,05
>>>>>End Processed Spectral Data<<<<<
