SpectraSuite Datei
++++++++++++++++++++++++++++++++++++
Datum: Mon Jun 06 15:35:19 CEST 2016
Benutzer: Admin
Dark-Spektrum vorhanden: Ja
Referenz-Spektrum vorhanden: Nein
Zahl der probierten Teilspektren: 1
Spektrometer: USB4H10187
Integrationszeit (usec): 4000 (USB4H10187)
Spektren Durchschnitt berechnet: 1000 (USB4H10187)
Boxcar Glättung: 0 (USB4H10187)
Dunkelstromkorrektur: Nein (USB4H10187)
Puls/Lampe aktiviert: Nein (USB4H10187)
Correct for Detector Non-linearity: Nein (USB4H10187)
Streulichtkorrektur: Nein (USB4H10187)
Anzahl Pixel in verarbeitetem Spektrum: 3648
>>>>>Begin Processed Spectral Data<<<<<
176,80	5,74
177,02	5,74
177,24	5,74
177,46	1,98
177,68	-19,41
177,91	-309,30
178,13	-387,89
178,35	-348,73
178,57	-262,15
178,79	-354,78
179,02	-231,93
179,24	-346,03
179,46	-295,42
179,68	-279,04
179,90	-238,86
180,12	-388,86
180,35	-329,45
180,57	-204,38
180,79	-348,35
181,01	-200,95
181,23	-415,65
181,46	-322,83
181,68	-183,83
181,90	-358,51
182,12	-263,13
182,34	-303,97
182,56	-336,89
182,79	-269,04
183,01	-364,18
183,23	-324,55
183,45	-312,10
183,67	-216,21
183,89	-319,72
184,12	-281,37
184,34	-240,82
184,56	-281,08
184,78	-171,47
185,00	-433,65
185,22	-266,39
185,45	-223,08
185,67	-143,81
185,89	-268,63
186,11	-198,42
186,33	-266,35
186,55	-342,48
186,77	-257,13
187,00	-250,84
187,22	-326,30
187,44	-249,25
187,66	-331,69
187,88	-270,63
188,10	-474,23
188,32	-410,71
188,55	-293,49
188,77	-300,45
188,99	-322,56
189,21	-296,05
189,43	-263,34
189,65	-229,79
189,87	-242,91
190,10	-268,39
190,32	-338,64
190,54	-306,84
190,76	-264,19
190,98	-275,28
191,20	-296,85
191,42	-289,60
191,64	-178,84
191,87	-342,19
192,09	-318,66
192,31	-207,29
192,53	-395,00
192,75	-227,90
192,97	-365,78
193,19	-278,43
193,41	-318,51
193,64	-292,11
193,86	-252,99
194,08	-184,16
194,30	-259,26
194,52	-304,95
194,74	-181,75
194,96	-209,60
195,18	-156,03
195,40	-333,59
195,63	-295,45
195,85	-178,19
196,07	-215,05
196,29	-324,63
196,51	-318,21
196,73	-290,64
196,95	-166,64
197,17	-300,70
197,39	-328,24
197,61	-357,12
197,84	-290,06
198,06	-202,53
198,28	-315,69
198,50	-225,95
198,72	-309,78
198,94	-346,58
199,16	-298,16
199,38	-349,60
199,60	-217,32
199,82	-298,27
200,04	-314,42
200,26	-323,30
200,49	-176,15
200,71	-216,87
200,93	-336,46
201,15	-306,83
201,37	-279,80
201,59	-241,03
201,81	-371,39
202,03	-377,89
202,25	-242,41
202,47	-288,66
202,69	-196,22
202,91	-235,49
203,13	-307,25
203,35	-166,24
203,58	-227,82
203,80	-365,24
204,02	-283,25
204,24	-273,08
204,46	-291,33
204,68	-219,47
204,90	-299,55
205,12	-210,64
205,34	-320,78
205,56	-194,05
205,78	-263,47
206,00	-369,36
206,22	-231,39
206,44	-308,64
206,66	-128,08
206,88	-424,91
207,10	-266,34
207,32	-276,65
207,54	-347,49
207,76	-284,61
207,99	-307,88
208,21	-392,57
208,43	-281,96
208,65	-180,36
208,87	-254,70
209,09	-290,61
209,31	-197,11
209,53	-114,41
209,75	-274,66
209,97	-254,04
210,19	-252,87
210,41	-278,93
210,63	-271,96
210,85	-296,72
211,07	-245,78
211,29	-288,26
211,51	-173,70
211,73	-267,69
211,95	-373,81
212,17	-204,16
212,39	-204,63
212,61	-313,55
212,83	-232,93
213,05	-292,06
213,27	-281,88
213,49	-335,66
213,71	-215,15
213,93	-375,85
214,15	-284,54
214,37	-249,10
214,59	-321,09
214,81	-106,93
215,03	-206,47
215,25	-316,43
215,47	-400,99
215,69	-347,09
215,91	-298,46
216,13	-247,23
216,35	-316,97
216,57	-289,57
216,79	-265,33
217,01	-283,51
217,23	-228,60
217,45	-246,02
217,67	-190,32
217,89	-306,21
218,11	-278,97
218,33	-256,40
218,55	-334,49
218,77	-255,23
218,99	-176,69
219,21	-328,55
219,43	-243,99
219,65	-207,51
219,87	-314,48
220,09	-277,57
220,31	-392,41
220,53	-215,61
220,75	-236,59
220,97	-292,72
221,19	-241,43
221,41	-291,66
221,63	-126,08
221,85	-184,88
222,06	-233,34
222,28	-283,75
222,50	-373,00
222,72	-281,55
222,94	-150,95
223,16	-322,50
223,38	-202,62
223,60	-231,30
223,82	-299,29
224,04	-300,52
224,26	-203,01
224,48	-176,76
224,70	-341,52
224,92	-197,05
225,14	-260,71
225,36	-382,77
225,58	-205,03
225,80	-288,89
226,02	-213,14
226,24	-249,88
226,45	-226,50
226,67	-178,05
226,89	-238,73
227,11	-332,63
227,33	-330,67
227,55	-214,92
227,77	-203,14
227,99	-248,88
228,21	-274,35
228,43	-270,59
228,65	-270,12
228,87	-255,26
229,09	-282,20
229,31	-261,63
229,52	-230,77
229,74	-269,32
229,96	-238,38
230,18	-245,72
230,40	-323,01
230,62	-195,74
230,84	-373,90
231,06	-180,69
231,28	-340,47
231,50	-223,95
231,72	-222,95
231,94	-294,88
232,15	-322,78
232,37	-307,50
232,59	-184,06
232,81	-410,77
233,03	-292,62
233,25	-242,25
233,47	-262,40
233,69	-176,91
233,91	-203,26
234,13	-209,24
234,34	-224,09
234,56	-263,33
234,78	-319,52
235,00	-203,27
235,22	-273,49
235,44	-152,21
235,66	-313,73
235,88	-227,71
236,10	-209,14
236,31	-209,79
236,53	-289,50
236,75	-357,05
236,97	-201,71
237,19	-263,41
237,41	-293,02
237,63	-335,64
237,85	-241,35
238,07	-261,93
238,28	-182,04
238,50	-279,51
238,72	-220,19
238,94	-229,41
239,16	-288,84
239,38	-309,29
239,60	-323,43
239,81	-239,05
240,03	-215,57
240,25	-207,99
240,47	-282,11
240,69	-208,25
240,91	-222,00
241,13	-403,65
241,34	-273,21
241,56	-259,19
241,78	-290,22
242,00	-343,43
242,22	-218,46
242,44	-358,77
242,66	-258,44
242,87	-254,56
243,09	-236,21
243,31	-284,44
243,53	-259,06
243,75	-275,71
243,97	-177,98
244,19	-180,18
244,40	-264,93
244,62	-259,16
244,84	-401,96
245,06	-335,10
245,28	-229,70
245,50	-313,46
245,71	-299,08
245,93	-147,09
246,15	-346,33
246,37	-422,65
246,59	-330,97
246,81	-261,87
247,02	-331,23
247,24	-267,88
247,46	-240,53
247,68	-274,67
247,90	-275,39
248,11	-305,93
248,33	-335,48
248,55	-210,00
248,77	-199,18
248,99	-354,17
249,21	-135,73
249,42	-295,55
249,64	-288,67
249,86	-313,10
250,08	-207,83
250,30	-266,30
250,51	-271,91
250,73	-204,37
250,95	-261,19
251,17	-333,00
251,39	-299,86
251,60	-234,45
251,82	-386,73
252,04	-235,35
252,26	-223,67
252,48	-285,55
252,69	-237,80
252,91	-269,12
253,13	-282,21
253,35	-194,85
253,57	-231,41
253,78	-159,08
254,00	-323,51
254,22	-200,83
254,44	-243,18
254,65	-271,68
254,87	-296,97
255,09	-272,60
255,31	-268,56
255,53	-242,96
255,74	-259,23
255,96	-198,45
256,18	-253,20
256,40	-275,10
256,61	-328,36
256,83	-284,81
257,05	-276,22
257,27	-237,27
257,48	-353,39
257,70	-303,38
257,92	-278,67
258,14	-287,61
258,36	-249,33
258,57	-292,92
258,79	-217,12
259,01	-264,32
259,23	-217,08
259,44	-279,55
259,66	-325,97
259,88	-264,38
260,10	-204,52
260,31	-150,49
260,53	-149,47
260,75	-170,06
260,97	-303,48
261,18	-274,90
261,40	-405,31
261,62	-303,74
261,84	-214,39
262,05	-219,12
262,27	-311,45
262,49	-329,94
262,71	-257,93
262,92	-174,75
263,14	-262,10
263,36	-179,06
263,57	-308,32
263,79	-218,03
264,01	-332,95
264,23	-245,69
264,44	-366,77
264,66	-284,43
264,88	-241,85
265,10	-221,36
265,31	-337,04
265,53	-237,43
265,75	-413,25
265,96	-231,66
266,18	-163,77
266,40	-254,97
266,62	-383,63
266,83	-275,96
267,05	-236,47
267,27	-218,61
267,48	-350,96
267,70	-249,07
267,92	-309,00
268,14	-212,21
268,35	-333,60
268,57	-183,24
268,79	-308,25
269,00	-322,62
269,22	-312,19
269,44	-252,94
269,65	-274,57
269,87	-306,15
270,09	-260,59
270,31	-167,30
270,52	-267,12
270,74	-292,65
270,96	-276,87
271,17	-334,65
271,39	-243,87
271,61	-254,38
271,82	-302,10
272,04	-215,80
272,26	-203,49
272,47	-312,42
272,69	-288,99
272,91	-227,35
273,12	-245,86
273,34	-254,38
273,56	-237,95
273,77	-231,11
273,99	-248,70
274,21	-307,23
274,42	-251,04
274,64	-257,25
274,86	-198,43
275,08	-227,41
275,29	-221,82
275,51	-244,11
275,72	-311,59
275,94	-274,69
276,16	-249,26
276,37	-311,37
276,59	-212,98
276,81	-198,08
277,02	-223,61
277,24	-325,28
277,46	-290,79
277,67	-194,51
277,89	-259,41
278,11	-244,60
278,32	-308,69
278,54	-136,63
278,76	-304,27
278,97	-320,51
279,19	-346,02
279,41	-224,02
279,62	-263,58
279,84	-328,41
280,05	-208,41
280,27	-236,66
280,49	-274,22
280,70	-300,25
280,92	-387,52
281,14	-306,39
281,35	-244,38
281,57	-307,48
281,79	-262,34
282,00	-216,42
282,22	-363,41
282,43	-286,02
282,65	-196,03
282,87	-136,11
283,08	-249,54
283,30	-306,35
283,52	-256,37
283,73	-221,92
283,95	-258,19
284,16	-281,11
284,38	-271,52
284,60	-196,18
284,81	-313,99
285,03	-288,42
285,24	-210,81
285,46	-268,56
285,68	-312,26
285,89	-206,49
286,11	-242,28
286,32	-242,48
286,54	-344,23
286,76	-364,96
286,97	-300,49
287,19	-251,83
287,40	-290,83
287,62	-225,05
287,84	-234,54
288,05	-253,85
288,27	-239,67
288,48	-192,64
288,70	-293,44
288,92	-151,36
289,13	-244,37
289,35	-238,00
289,56	-302,65
289,78	-263,27
289,99	-396,79
290,21	-308,11
290,43	-333,53
290,64	-266,51
290,86	-289,12
291,07	-225,57
291,29	-333,01
291,51	-256,22
291,72	-334,92
291,94	-321,28
292,15	-227,42
292,37	-410,27
292,58	-265,54
292,80	-344,52
293,01	-205,98
293,23	-323,16
293,45	-302,33
293,66	-353,85
293,88	-318,47
294,09	-234,52
294,31	-250,84
294,52	-363,92
294,74	-242,88
294,96	-335,66
295,17	-178,35
295,39	-253,60
295,60	-388,52
295,82	-136,61
296,03	-359,51
296,25	-194,17
296,46	-199,68
296,68	-145,35
296,89	-267,25
297,11	-184,32
297,32	-311,83
297,54	-270,05
297,76	-221,14
297,97	-253,89
298,19	-275,56
298,40	-180,16
298,62	-190,66
298,83	-207,51
299,05	-219,92
299,26	-253,85
299,48	-224,47
299,69	-223,82
299,91	-157,32
300,12	-225,12
300,34	-254,45
300,55	-258,28
300,77	-245,72
300,98	-246,70
301,20	-242,64
301,41	-308,72
301,63	-269,70
301,84	-246,25
302,06	-235,32
302,28	-236,16
302,49	-230,58
302,71	-312,86
302,92	-242,54
303,14	-262,34
303,35	-293,61
303,57	-318,81
303,78	-287,11
304,00	-304,87
304,21	-288,27
304,43	-255,97
304,64	-347,79
304,86	-240,91
305,07	-224,73
305,29	-231,39
305,50	-240,90
305,71	-331,39
305,93	-266,47
306,14	-324,98
306,36	-278,05
306,57	-323,28
306,79	-231,74
307,00	-201,19
307,22	-327,29
307,43	-247,01
307,65	-324,08
307,86	-345,36
308,08	-283,39
308,29	-321,31
308,51	-281,88
308,72	-270,26
308,94	-263,56
309,15	-349,78
309,37	-188,84
309,58	-144,77
309,80	-295,79
310,01	-270,80
310,22	-273,96
310,44	-213,16
310,65	-277,44
310,87	-352,71
311,08	-221,61
311,30	-201,83
311,51	-277,46
311,73	-294,98
311,94	-245,59
312,16	-282,84
312,37	-271,71
312,58	-418,18
312,80	-278,24
313,01	-353,84
313,23	-290,84
313,44	-328,58
313,66	-227,37
313,87	-397,28
314,09	-270,40
314,30	-206,54
314,51	-296,09
314,73	-224,48
314,94	-252,77
315,16	-331,15
315,37	-259,68
315,59	-176,76
315,80	-277,87
316,01	-290,86
316,23	-249,45
316,44	-337,56
316,66	-371,03
316,87	-322,84
317,09	-284,59
317,30	-222,33
317,51	-135,75
317,73	-359,31
317,94	-248,66
318,16	-323,11
318,37	-289,75
318,58	-238,72
318,80	-302,79
319,01	-323,72
319,23	-300,37
319,44	-234,11
319,66	-282,16
319,87	-225,75
320,08	-285,94
320,30	-160,48
320,51	-179,17
320,73	-221,69
320,94	-407,62
321,15	-154,40
321,37	-350,91
321,58	-263,95
321,80	-351,17
322,01	-225,17
322,22	-216,21
322,44	-243,24
322,65	-203,38
322,86	-228,36
323,08	-295,43
323,29	-199,03
323,51	-305,16
323,72	-309,68
323,93	-210,32
324,15	-242,01
324,36	-214,47
324,58	-303,42
324,79	-289,86
325,00	-334,65
325,22	-228,01
325,43	-369,07
325,64	-206,39
325,86	-249,93
326,07	-190,62
326,28	-309,32
326,50	-263,25
326,71	-305,07
326,93	-222,09
327,14	-206,83
327,35	-141,76
327,57	-258,10
327,78	-193,20
327,99	-330,74
328,21	-212,74
328,42	-304,75
328,63	-295,02
328,85	-279,78
329,06	-194,61
329,27	-159,58
329,49	-141,52
329,70	-10,80
329,91	12,04
330,13	41,83
330,34	-84,60
330,56	51,63
330,77	-113,74
330,98	-162,72
331,20	-122,60
331,41	-261,23
331,62	-310,68
331,84	-286,74
332,05	-292,68
332,26	-377,87
332,48	-245,95
332,69	-285,07
332,90	-305,97
333,11	-269,17
333,33	-196,47
333,54	-302,01
333,75	-230,04
333,97	-227,97
334,18	-303,86
334,39	-338,95
334,61	-299,77
334,82	-308,91
335,03	-282,86
335,25	-201,89
335,46	-222,38
335,67	-253,46
335,89	-214,25
336,10	-322,60
336,31	-244,54
336,53	-338,71
336,74	-337,12
336,95	-371,36
337,16	-262,46
337,38	-226,20
337,59	-361,58
337,80	-225,55
338,02	-291,15
338,23	-250,22
338,44	-292,78
338,65	-287,39
338,87	-161,31
339,08	-256,25
339,29	-316,63
339,51	-401,99
339,72	-240,52
339,93	-294,54
340,14	-237,44
340,36	-287,52
340,57	-317,06
340,78	-271,38
341,00	-285,59
341,21	-322,43
341,42	-374,55
341,63	-161,17
341,85	-187,33
342,06	-210,88
342,27	-259,81
342,49	-193,26
342,70	-296,59
342,91	-397,98
343,12	-339,79
343,34	-335,32
343,55	-219,17
343,76	-195,36
343,97	-249,38
344,19	-325,03
344,40	-194,10
344,61	-224,14
344,82	-259,19
345,04	-245,14
345,25	-288,75
345,46	-305,38
345,67	-177,66
345,89	-234,89
346,10	-308,31
346,31	-294,16
346,52	-294,96
346,74	-267,69
346,95	-174,35
347,16	-216,06
347,37	-307,52
347,59	-241,39
347,80	-252,68
348,01	-355,10
348,22	-308,68
348,43	-264,96
348,65	-186,67
348,86	-346,26
349,07	-306,89
349,28	-291,20
349,50	-258,92
349,71	-175,71
349,92	-156,17
350,13	-220,12
350,34	-222,01
350,56	-258,85
350,77	-253,23
350,98	-280,70
351,19	-235,03
351,41	-182,46
351,62	-280,89
351,83	-328,80
352,04	-362,10
352,25	-275,38
352,47	-239,32
352,68	-397,95
352,89	-238,01
353,10	-249,99
353,31	-237,19
353,53	-242,32
353,74	-199,42
353,95	-193,90
354,16	-284,10
354,37	-336,12
354,59	-362,31
354,80	-285,18
355,01	-324,12
355,22	-222,98
355,43	-226,57
355,65	-174,13
355,86	-333,50
356,07	-284,76
356,28	-286,95
356,49	-249,32
356,70	-325,74
356,92	-272,52
357,13	-243,63
357,34	-316,53
357,55	-369,00
357,76	-356,77
357,98	-241,46
358,19	-175,52
358,40	-266,80
358,61	-226,42
358,82	-297,43
359,03	-245,86
359,25	-263,57
359,46	-221,78
359,67	-324,51
359,88	-297,24
360,09	-316,86
360,30	-269,08
360,51	-308,91
360,73	-256,14
360,94	-211,81
361,15	-215,49
361,36	-176,36
361,57	-212,90
361,78	-251,38
362,00	-125,40
362,21	-289,74
362,42	-355,43
362,63	-305,45
362,84	-335,05
363,05	-251,95
363,26	-259,30
363,48	-349,09
363,69	-295,11
363,90	-212,55
364,11	-157,77
364,32	-299,92
364,53	-241,99
364,74	-233,93
364,95	-241,75
365,17	-199,21
365,38	-242,00
365,59	-295,30
365,80	-288,01
366,01	-356,85
366,22	-285,41
366,43	-215,73
366,64	-243,73
366,86	-297,38
367,07	-333,38
367,28	-340,86
367,49	-334,04
367,70	-209,78
367,91	-362,68
368,12	-316,49
368,33	-241,78
368,54	-222,47
368,76	-302,84
368,97	-284,89
369,18	-224,69
369,39	-330,62
369,60	-259,34
369,81	-304,63
370,02	-222,73
370,23	-192,55
370,44	-292,45
370,65	-267,51
370,87	-240,23
371,08	-270,16
371,29	-331,07
371,50	-324,51
371,71	-219,83
371,92	-300,09
372,13	-278,32
372,34	-216,01
372,55	-252,60
372,76	-288,87
372,97	-270,79
373,18	-325,70
373,40	-175,40
373,61	-289,56
373,82	-279,42
374,03	-175,76
374,24	-246,83
374,45	-256,96
374,66	-359,12
374,87	-244,32
375,08	-248,34
375,29	-155,91
375,50	-237,38
375,71	-254,54
375,92	-311,82
376,13	-141,49
376,34	-229,60
376,56	-216,27
376,77	-253,42
376,98	-213,00
377,19	-308,72
377,40	-189,95
377,61	-283,17
377,82	-267,51
378,03	-334,66
378,24	-198,43
378,45	-317,94
378,66	-274,05
378,87	-231,09
379,08	-329,84
379,29	-299,05
379,50	-299,71
379,71	-150,63
379,92	-335,63
380,13	-331,19
380,34	-329,28
380,55	-180,98
380,76	-287,23
380,97	-311,19
381,18	-293,07
381,39	-272,49
381,60	-287,10
381,81	-332,41
382,02	-339,31
382,24	-269,03
382,45	-280,16
382,66	-290,42
382,87	-272,45
383,08	-305,23
383,29	-217,08
383,50	-392,62
383,71	-224,97
383,92	-216,44
384,13	-196,73
384,34	-315,60
384,55	-326,73
384,76	-221,22
384,97	-241,04
385,18	-248,10
385,39	-192,81
385,60	-272,61
385,81	-276,24
386,02	-270,36
386,23	-175,41
386,44	-243,49
386,65	-264,90
386,86	-251,47
387,07	-284,70
387,28	-182,04
387,49	-253,92
387,70	-236,37
387,91	-267,25
388,12	-258,29
388,32	-336,52
388,53	-308,51
388,74	-325,15
388,95	-240,94
389,16	-313,58
389,37	-163,56
389,58	-172,92
389,79	-291,33
390,00	-285,80
390,21	-274,24
390,42	-246,44
390,63	-395,45
390,84	-196,58
391,05	-265,72
391,26	-253,31
391,47	-232,76
391,68	-259,61
391,89	-370,01
392,10	-287,43
392,31	-295,78
392,52	-257,20
392,73	-194,77
392,94	-235,55
393,15	-212,30
393,36	-378,45
393,57	-297,68
393,78	-166,51
393,98	-193,46
394,19	-224,47
394,40	-324,54
394,61	-167,70
394,82	-208,03
395,03	-328,99
395,24	-282,56
395,45	-268,62
395,66	-256,95
395,87	-202,04
396,08	-144,61
396,29	-238,24
396,50	-171,66
396,71	-259,41
396,92	-220,60
397,12	-237,57
397,33	-291,39
397,54	-251,59
397,75	-272,23
397,96	-241,12
398,17	-203,76
398,38	-242,54
398,59	-313,08
398,80	-205,96
399,01	-279,11
399,22	-271,79
399,43	-290,76
399,63	-345,16
399,84	-317,22
400,05	-163,20
400,26	-427,72
400,47	-272,33
400,68	-273,70
400,89	-185,34
401,10	-249,11
401,31	-254,42
401,52	-183,47
401,72	-174,19
401,93	-177,37
402,14	-172,29
402,35	-202,05
402,56	-250,03
402,77	-257,96
402,98	-268,10
403,19	-238,10
403,40	-213,54
403,60	-189,17
403,81	-347,45
404,02	-213,40
404,23	-339,26
404,44	-244,81
404,65	-231,62
404,86	-286,59
405,07	-204,29
405,27	-238,65
405,48	-178,55
405,69	-154,79
405,90	-224,96
406,11	-295,09
406,32	-324,30
406,53	-212,90
406,74	-279,30
406,94	-229,76
407,15	-276,16
407,36	-313,94
407,57	-325,43
407,78	-329,47
407,99	-320,69
408,20	-354,75
408,40	-259,87
408,61	-295,66
408,82	-348,27
409,03	-262,38
409,24	-185,44
409,45	-260,38
409,65	-344,73
409,86	-297,72
410,07	-223,06
410,28	-224,80
410,49	-286,99
410,70	-307,24
410,90	-220,76
411,11	-412,87
411,32	-180,10
411,53	-311,73
411,74	-254,65
411,95	-363,31
412,15	-394,25
412,36	-154,44
412,57	-174,08
412,78	-243,38
412,99	-373,02
413,20	-189,53
413,40	-299,54
413,61	-390,47
413,82	-256,43
414,03	-242,41
414,24	-298,14
414,44	-261,38
414,65	-274,85
414,86	-248,07
415,07	-318,68
415,28	-317,25
415,48	-270,07
415,69	-264,62
415,90	-330,12
416,11	-282,38
416,32	-289,48
416,53	-176,54
416,73	-258,19
416,94	-325,75
417,15	-235,72
417,36	-140,20
417,56	-333,87
417,77	-227,49
417,98	-198,34
418,19	-459,78
418,40	-278,51
418,60	-268,88
418,81	-213,94
419,02	-345,72
419,23	-291,19
419,44	-174,68
419,64	-354,10
419,85	-327,90
420,06	-301,08
420,27	-152,16
420,47	-204,76
420,68	-291,10
420,89	-286,08
421,10	-240,47
421,30	-241,97
421,51	-283,48
421,72	-197,07
421,93	-256,88
422,14	-199,08
422,34	-356,18
422,55	-279,93
422,76	-251,51
422,97	-213,90
423,17	-284,13
423,38	-260,86
423,59	-242,42
423,80	-236,54
424,00	-253,29
424,21	-438,04
424,42	-280,02
424,63	-358,12
424,83	-215,85
425,04	-311,23
425,25	-289,38
425,46	-326,89
425,66	-406,73
425,87	-224,15
426,08	-325,23
426,28	-310,56
426,49	-270,20
426,70	-264,86
426,91	-253,92
427,11	-218,91
427,32	-316,24
427,53	-211,32
427,74	-268,38
427,94	-272,99
428,15	-318,61
428,36	-194,86
428,56	-212,99
428,77	-264,92
428,98	-219,69
429,19	-348,76
429,39	-253,79
429,60	-223,91
429,81	-346,23
430,01	-318,21
430,22	-289,23
430,43	-205,00
430,64	-315,71
430,84	-213,38
431,05	-183,93
431,26	-275,09
431,46	-344,72
431,67	-357,23
431,88	-191,68
432,08	-287,65
432,29	-247,91
432,50	-252,24
432,70	-327,87
432,91	-319,28
433,12	-190,69
433,33	-233,38
433,53	-202,31
433,74	-275,84
433,95	-291,63
434,15	-262,80
434,36	-239,16
434,57	-305,33
434,77	-310,39
434,98	-359,89
435,19	-308,36
435,39	-232,16
435,60	-271,24
435,81	-309,17
436,01	-226,91
436,22	-302,52
436,43	-274,70
436,63	-268,22
436,84	-194,96
437,05	-215,80
437,25	-347,63
437,46	-332,79
437,67	-177,74
437,87	-213,82
438,08	-358,28
438,29	-285,98
438,49	-291,98
438,70	-337,71
438,91	-179,97
439,11	-259,03
439,32	-316,82
439,52	-278,22
439,73	-292,41
439,94	-363,96
440,14	-270,15
440,35	-253,36
440,56	-266,61
440,76	-325,72
440,97	-245,65
441,18	-194,30
441,38	-234,42
441,59	-254,63
441,79	-264,15
442,00	-231,31
442,21	-288,59
442,41	-221,91
442,62	-196,57
442,83	-299,76
443,03	-320,18
443,24	-306,73
443,44	-253,77
443,65	-267,07
443,86	-274,79
444,06	-324,77
444,27	-354,65
444,48	-309,31
444,68	-209,35
444,89	-397,46
445,09	-348,48
445,30	-217,52
445,51	-269,86
445,71	-361,77
445,92	-274,72
446,12	-222,52
446,33	-358,76
446,54	-301,55
446,74	-270,26
446,95	-237,47
447,15	-314,10
447,36	-205,65
447,57	-326,51
447,77	-286,35
447,98	-284,23
448,18	-296,41
448,39	-227,21
448,59	-233,59
448,80	-257,57
449,01	-250,21
449,21	-227,08
449,42	-299,20
449,62	-291,72
449,83	-165,18
450,04	-191,74
450,24	-342,89
450,45	-129,68
450,65	-238,30
450,86	-325,19
451,06	-235,70
451,27	-250,75
451,47	-281,73
451,68	-296,34
451,89	-244,48
452,09	-244,90
452,30	-235,15
452,50	-297,99
452,71	-352,25
452,91	-185,42
453,12	-260,20
453,33	-327,46
453,53	-293,84
453,74	-250,99
453,94	-310,20
454,15	-295,67
454,35	-210,68
454,56	-225,49
454,76	-373,37
454,97	-504,79
455,17	-228,86
455,38	-291,35
455,58	-200,41
455,79	-204,09
456,00	-260,63
456,20	-93,85
456,41	-272,61
456,61	-254,01
456,82	-280,74
457,02	-346,48
457,23	-272,37
457,43	-268,72
457,64	-254,43
457,84	-171,73
458,05	-255,72
458,25	-280,89
458,46	-289,53
458,66	-175,34
458,87	-154,33
459,07	-293,37
459,28	-291,13
459,48	-247,85
459,69	-225,94
459,89	-186,23
460,10	-342,91
460,30	-245,70
460,51	-332,91
460,71	-271,75
460,92	-244,86
461,12	-259,16
461,33	-217,34
461,53	-250,04
461,74	-283,56
461,94	-240,48
462,15	-346,10
462,35	-214,76
462,56	-396,95
462,76	-215,78
462,97	-301,09
463,17	-224,66
463,38	-352,49
463,58	-279,95
463,79	-279,10
463,99	-287,03
464,20	-313,18
464,40	-270,44
464,61	-262,73
464,81	-297,70
465,02	-342,80
465,22	-256,05
465,43	-205,90
465,63	-182,25
465,83	-203,26
466,04	-353,33
466,24	-172,57
466,45	-285,75
466,65	-238,58
466,86	-191,30
467,06	-261,35
467,27	-261,17
467,47	-194,89
467,68	-283,51
467,88	-224,13
468,08	-298,01
468,29	-171,94
468,49	-211,50
468,70	-260,12
468,90	-305,02
469,11	-306,96
469,31	-204,83
469,52	-260,02
469,72	-289,58
469,92	-241,72
470,13	-103,18
470,33	-216,74
470,54	-360,97
470,74	-416,80
470,95	-235,62
471,15	-327,11
471,35	-106,41
471,56	-297,07
471,76	-323,31
471,97	-285,85
472,17	-285,81
472,38	-251,67
472,58	-320,35
472,78	-266,18
472,99	-375,08
473,19	-290,32
473,40	-252,80
473,60	-183,32
473,80	-263,41
474,01	-223,08
474,21	-308,61
474,42	-270,53
474,62	-328,78
474,83	-149,47
475,03	-311,59
475,23	-340,15
475,44	-343,92
475,64	-307,76
475,85	-332,16
476,05	-297,66
476,25	-297,12
476,46	-380,90
476,66	-241,73
476,86	-357,08
477,07	-379,38
477,27	-275,27
477,48	-208,09
477,68	-254,77
477,88	-282,15
478,09	-212,59
478,29	-344,78
478,50	-215,01
478,70	-272,39
478,90	-262,15
479,11	-247,24
479,31	-188,52
479,51	-289,84
479,72	-228,82
479,92	-375,18
480,12	-368,81
480,33	-279,59
480,53	-356,59
480,74	-284,97
480,94	-287,22
481,14	-290,65
481,35	-311,08
481,55	-267,92
481,75	-247,28
481,96	-241,05
482,16	-392,82
482,36	-304,51
482,57	-194,27
482,77	-331,02
482,97	-212,59
483,18	-264,46
483,38	-312,02
483,58	-282,06
483,79	-228,83
483,99	-270,05
484,19	-358,65
484,40	-258,62
484,60	-293,67
484,80	-299,23
485,01	-213,76
485,21	-250,59
485,41	-329,75
485,62	-246,70
485,82	-274,24
486,02	-217,46
486,23	-321,51
486,43	-390,03
486,63	-202,97
486,84	-323,26
487,04	-204,85
487,24	-211,07
487,45	-269,06
487,65	-168,44
487,85	-358,14
488,06	-321,27
488,26	-244,01
488,46	-320,45
488,67	-260,68
488,87	-323,54
489,07	-257,10
489,27	-271,00
489,48	-259,43
489,68	-343,50
489,88	-373,35
490,09	-307,24
490,29	-354,80
490,49	-420,89
490,70	-248,76
490,90	-386,52
491,10	-264,35
491,30	-349,42
491,51	-213,37
491,71	-352,33
491,91	-344,27
492,12	-360,22
492,32	-258,45
492,52	-286,56
492,72	-334,95
492,93	-291,10
493,13	-290,83
493,33	-340,19
493,53	-274,70
493,74	-311,34
493,94	-331,20
494,14	-287,06
494,34	-281,33
494,55	-174,58
494,75	-289,57
494,95	-397,78
495,16	-338,41
495,36	-278,52
495,56	-278,05
495,76	-245,39
495,97	-261,01
496,17	-252,89
496,37	-281,10
496,57	-260,02
496,78	-247,03
496,98	-225,02
497,18	-241,08
497,38	-195,18
497,59	-280,35
497,79	-161,81
497,99	-267,59
498,19	-209,12
498,39	-140,35
498,60	-221,40
498,80	-131,10
499,00	-258,49
499,20	-282,47
499,41	-282,25
499,61	-247,60
499,81	-282,05
500,01	-343,01
500,22	-252,68
500,42	-172,72
500,62	-344,97
500,82	-238,80
501,02	-285,79
501,23	-344,57
501,43	-326,30
501,63	-262,34
501,83	-323,83
502,03	-387,58
502,24	-294,93
502,44	-292,39
502,64	-331,76
502,84	-289,71
503,05	-266,01
503,25	-260,38
503,45	-270,44
503,65	-249,79
503,85	-250,43
504,06	-298,28
504,26	-251,69
504,46	-312,35
504,66	-328,72
504,86	-264,89
505,06	-326,45
505,27	-335,47
505,47	-262,61
505,67	-263,13
505,87	-218,65
506,07	-363,32
506,28	-331,15
506,48	-264,49
506,68	-289,20
506,88	-272,81
507,08	-264,52
507,28	-321,66
507,49	-235,45
507,69	-255,31
507,89	-353,40
508,09	-251,05
508,29	-347,74
508,49	-394,95
508,70	-254,65
508,90	-339,19
509,10	-291,05
509,30	-325,37
509,50	-266,95
509,70	-328,76
509,91	-295,98
510,11	-372,69
510,31	-206,90
510,51	-444,91
510,71	-250,71
510,91	-346,91
511,11	-324,56
511,32	-409,16
511,52	-337,33
511,72	-368,95
511,92	-265,30
512,12	-272,38
512,32	-239,13
512,52	-285,52
512,73	-304,95
512,93	-373,21
513,13	-253,21
513,33	-251,30
513,53	-323,88
513,73	-392,01
513,93	-277,48
514,13	-251,38
514,34	-233,76
514,54	-305,45
514,74	-314,14
514,94	-329,78
515,14	-314,98
515,34	-186,39
515,54	-366,38
515,74	-331,79
515,94	-250,72
516,15	-278,20
516,35	-295,37
516,55	-215,79
516,75	-368,37
516,95	-334,43
517,15	-278,93
517,35	-241,58
517,55	-284,93
517,75	-366,14
517,95	-312,21
518,16	-274,47
518,36	-209,84
518,56	-279,23
518,76	-430,19
518,96	-295,03
519,16	-209,30
519,36	-359,31
519,56	-420,26
519,76	-254,04
519,96	-246,86
520,16	-260,88
520,37	-251,15
520,57	-240,30
520,77	-385,26
520,97	-354,26
521,17	-345,82
521,37	-343,83
521,57	-335,51
521,77	-375,19
521,97	-303,40
522,17	-232,30
522,37	-351,69
522,57	-259,41
522,77	-272,11
522,97	-311,18
523,17	-209,60
523,37	-286,35
523,58	-454,55
523,78	-182,44
523,98	-351,58
524,18	-370,40
524,38	-340,77
524,58	-324,61
524,78	-303,44
524,98	-247,38
525,18	-344,66
525,38	-278,53
525,58	-295,66
525,78	-268,55
525,98	-169,18
526,18	-282,73
526,38	-264,35
526,58	-234,55
526,78	-307,76
526,98	-276,63
527,18	-348,61
527,38	-241,40
527,58	-260,62
527,78	-347,89
527,98	-254,45
528,18	-358,54
528,38	-223,77
528,58	-313,99
528,78	-284,83
528,98	-250,15
529,18	-335,20
529,38	-146,96
529,58	-272,64
529,78	-342,36
529,98	-328,35
530,18	-296,57
530,38	-309,57
530,58	-213,45
530,78	-352,46
530,98	-333,34
531,18	-327,26
531,38	-311,57
531,58	-333,18
531,78	-344,86
531,98	-206,22
532,18	-258,52
532,38	-223,61
532,58	-280,71
532,78	-288,90
532,98	-294,07
533,18	-287,56
533,38	-344,01
533,58	-190,04
533,78	-269,68
533,98	-187,06
534,18	-173,21
534,38	-334,23
534,58	-258,36
534,78	-440,64
534,98	-307,59
535,18	-274,66
535,38	-476,86
535,58	-352,19
535,78	-249,85
535,98	-312,26
536,18	-236,50
536,38	-297,09
536,58	-319,37
536,78	-348,00
536,98	-337,76
537,18	-319,54
537,38	-359,39
537,58	-354,76
537,78	-283,77
537,98	-245,30
538,17	-310,25
538,37	-242,93
538,57	-295,06
538,77	-287,07
538,97	-328,45
539,17	-285,03
539,37	-277,07
539,57	-267,47
539,77	-239,41
539,97	-255,57
540,17	-220,01
540,37	-303,49
540,57	-343,18
540,77	-311,46
540,97	-303,98
541,16	-319,05
541,36	-304,64
541,56	-207,08
541,76	-326,01
541,96	-345,46
542,16	-306,28
542,36	-388,97
542,56	-298,20
542,76	-335,99
542,96	-325,15
543,16	-231,98
543,36	-339,90
543,55	-317,75
543,75	-286,85
543,95	-341,02
544,15	-268,29
544,35	-292,95
544,55	-294,83
544,75	-263,93
544,95	-218,86
545,15	-251,07
545,35	-402,95
545,54	-270,79
545,74	-372,09
545,94	-279,78
546,14	-221,94
546,34	-275,77
546,54	-309,58
546,74	-341,57
546,94	-152,05
547,14	-204,54
547,33	-213,54
547,53	-295,27
547,73	-235,99
547,93	-331,21
548,13	-353,18
548,33	-425,47
548,53	-242,01
548,72	-245,44
548,92	-309,57
549,12	-255,57
549,32	-250,71
549,52	-282,19
549,72	-370,23
549,92	-247,25
550,12	-309,66
550,31	-328,86
550,51	-282,49
550,71	-237,18
550,91	-263,56
551,11	-350,66
551,31	-281,46
551,50	-279,77
551,70	-280,77
551,90	-303,39
552,10	-243,39
552,30	-221,60
552,50	-344,73
552,70	-178,81
552,89	-296,50
553,09	-287,10
553,29	-264,00
553,49	-345,56
553,69	-256,45
553,88	-282,24
554,08	-235,82
554,28	-313,54
554,48	-350,28
554,68	-242,76
554,88	-333,28
555,07	-361,81
555,27	-242,62
555,47	-299,54
555,67	-285,80
555,87	-213,64
556,06	-339,75
556,26	-278,09
556,46	-265,79
556,66	-298,12
556,86	-394,16
557,06	-293,11
557,25	-370,75
557,45	-212,67
557,65	-314,29
557,85	-303,89
558,05	-221,43
558,24	-232,87
558,44	-307,42
558,64	-358,85
558,84	-321,23
559,03	-238,78
559,23	-363,89
559,43	-342,44
559,63	-361,91
559,83	-283,35
560,02	-305,51
560,22	-318,99
560,42	-262,47
560,62	-317,68
560,82	-269,99
561,01	-215,53
561,21	-215,28
561,41	-376,78
561,61	-315,58
561,80	-366,24
562,00	-184,97
562,20	-218,47
562,40	-254,95
562,59	-333,33
562,79	-329,45
562,99	-316,36
563,19	-461,86
563,38	-375,20
563,58	-280,85
563,78	-222,02
563,98	-165,47
564,17	-315,57
564,37	-229,58
564,57	-428,33
564,77	-232,40
564,96	-341,83
565,16	-346,14
565,36	-357,77
565,56	-196,23
565,75	-268,57
565,95	-241,83
566,15	-193,69
566,35	-242,44
566,54	-294,19
566,74	-350,10
566,94	-286,60
567,14	-216,30
567,33	-172,47
567,53	-145,70
567,73	133,27
567,92	159,16
568,12	403,77
568,32	534,46
568,52	519,59
568,71	628,09
568,91	463,78
569,11	312,06
569,30	152,26
569,50	76,24
569,70	-125,81
569,90	-223,12
570,09	-263,55
570,29	-298,48
570,49	-267,40
570,68	-252,52
570,88	-293,33
571,08	-237,24
571,27	-282,19
571,47	-260,70
571,67	-328,42
571,87	-271,37
572,06	-221,75
572,26	-302,46
572,46	-321,97
572,65	-249,13
572,85	-263,91
573,05	-242,69
573,24	-374,37
573,44	-209,99
573,64	-334,05
573,83	-315,72
574,03	-278,42
574,23	-215,21
574,42	-222,54
574,62	-296,22
574,82	-198,04
575,01	-191,68
575,21	-335,23
575,41	-208,39
575,60	-116,67
575,80	-177,96
576,00	-316,07
576,19	-161,11
576,39	-173,49
576,59	-227,46
576,78	-166,12
576,98	-310,98
577,18	-299,78
577,37	-264,36
577,57	-180,53
577,77	-264,71
577,96	-301,69
578,16	-350,53
578,35	-188,94
578,55	-230,21
578,75	-188,48
578,94	-172,57
579,14	-362,50
579,34	-401,71
579,53	-196,58
579,73	-268,31
579,93	-275,47
580,12	-277,68
580,32	-213,20
580,51	-179,58
580,71	-299,48
580,91	-276,83
581,10	-232,26
581,30	-253,56
581,50	-320,00
581,69	-165,97
581,89	-153,71
582,08	-196,32
582,28	-260,89
582,48	-268,42
582,67	-229,75
582,87	-224,22
583,06	-195,37
583,26	-356,52
583,46	-189,09
583,65	-153,93
583,85	-149,88
584,04	-174,81
584,24	-162,17
584,44	-78,74
584,63	-9,48
584,83	-55,25
585,02	-35,40
585,22	-59,32
585,42	119,78
585,61	19,65
585,81	-75,02
586,00	-12,40
586,20	-153,29
586,39	-14,21
586,59	-36,02
586,79	41,86
586,98	-58,98
587,18	105,94
587,37	286,55
587,57	947,13
587,76	5360,13
587,96	21736,46
588,16	43424,62
588,35	55306,09
588,55	60981,10
588,74	63755,32
588,94	63849,52
589,13	63712,31
589,33	63884,34
589,52	63861,81
589,72	63810,61
589,92	61463,77
590,11	57455,16
590,31	55096,22
590,50	53538,24
590,70	52703,56
590,89	51542,22
591,09	46660,93
591,28	41098,78
591,48	35865,65
591,67	30186,79
591,87	26256,52
592,06	25895,57
592,26	24147,96
592,46	20871,58
592,65	6692,49
592,85	1404,13
593,04	37,23
593,24	-78,55
593,43	14,04
593,63	-21,49
593,82	-19,19
594,02	-122,51
594,21	-190,17
594,41	-193,11
594,60	-147,60
594,80	-142,40
594,99	-139,11
595,19	-256,81
595,38	-261,68
595,58	-162,21
595,77	-270,93
595,97	-169,70
596,16	-123,42
596,36	-252,44
596,55	-224,29
596,75	-275,88
596,94	-116,74
597,14	-278,55
597,33	-308,70
597,53	-299,30
597,72	-388,14
597,92	-204,39
598,11	-228,36
598,31	-363,38
598,50	-348,84
598,70	-284,17
598,89	-328,99
599,09	-188,33
599,28	-314,13
599,48	-409,34
599,67	-493,78
599,87	-454,20
600,06	-326,88
600,26	-283,81
600,45	-356,42
600,64	-392,11
600,84	-321,58
601,03	-317,35
601,23	-313,07
601,42	-320,51
601,62	-503,29
601,81	-465,47
602,01	-421,84
602,20	-367,24
602,40	-415,30
602,59	-328,73
602,78	-426,76
602,98	-371,31
603,17	-412,08
603,37	-434,04
603,56	-498,70
603,76	-412,20
603,95	-387,51
604,15	-384,31
604,34	-433,16
604,53	-364,16
604,73	-324,64
604,92	-435,82
605,12	-482,62
605,31	-422,60
605,51	-411,74
605,70	-506,00
605,89	-526,71
606,09	-400,96
606,28	-479,89
606,48	-628,87
606,67	-436,86
606,87	-382,56
607,06	-370,05
607,25	-435,17
607,45	-506,09
607,64	-366,11
607,84	-442,00
608,03	-494,37
608,22	-392,36
608,42	-416,42
608,61	-370,34
608,81	-548,80
609,00	-419,70
609,19	-451,04
609,39	-409,37
609,58	-401,40
609,78	-498,89
609,97	-401,17
610,16	-451,43
610,36	-367,50
610,55	-377,74
610,75	-389,58
610,94	-483,18
611,13	-470,11
611,33	-465,30
611,52	-484,88
611,71	-496,74
611,91	-518,27
612,10	-432,91
612,30	-528,48
612,49	-443,31
612,68	-377,04
612,88	-376,66
613,07	-545,10
613,26	-409,49
613,46	-474,25
613,65	-442,24
613,84	-525,55
614,04	-540,90
614,23	-419,63
614,43	-467,67
614,62	-406,17
614,81	-376,21
615,01	-394,49
615,20	-374,32
615,39	-292,64
615,59	-293,61
615,78	-221,89
615,97	-358,61
616,17	-344,22
616,36	-363,00
616,55	-375,59
616,75	-412,53
616,94	-380,40
617,13	-373,12
617,33	-521,88
617,52	-487,11
617,71	-580,77
617,91	-462,55
618,10	-613,65
618,29	-555,90
618,49	-527,06
618,68	-533,65
618,87	-461,25
619,07	-478,25
619,26	-485,60
619,45	-595,80
619,65	-588,24
619,84	-480,09
620,03	-502,44
620,22	-484,08
620,42	-588,44
620,61	-588,07
620,80	-453,09
621,00	-527,32
621,19	-499,50
621,38	-540,18
621,58	-480,89
621,77	-577,99
621,96	-581,95
622,15	-594,22
622,35	-539,97
622,54	-588,90
622,73	-458,13
622,93	-533,58
623,12	-458,44
623,31	-562,65
623,50	-416,89
623,70	-572,20
623,89	-497,64
624,08	-508,45
624,28	-487,92
624,47	-548,92
624,66	-598,92
624,85	-590,09
625,05	-550,23
625,24	-526,16
625,43	-532,98
625,62	-536,25
625,82	-555,28
626,01	-486,79
626,20	-481,50
626,39	-525,45
626,59	-679,26
626,78	-570,65
626,97	-702,25
627,17	-558,91
627,36	-619,23
627,55	-525,31
627,74	-624,68
627,93	-567,19
628,13	-611,29
628,32	-481,85
628,51	-458,05
628,70	-513,19
628,90	-531,37
629,09	-532,48
629,28	-573,84
629,47	-550,41
629,67	-446,58
629,86	-641,74
630,05	-707,62
630,24	-583,41
630,44	-530,97
630,63	-568,10
630,82	-486,09
631,01	-532,44
631,20	-680,91
631,40	-735,77
631,59	-532,62
631,78	-573,31
631,97	-602,42
632,16	-637,68
632,36	-627,48
632,55	-547,62
632,74	-530,86
632,93	-524,63
633,13	-536,53
633,32	-633,03
633,51	-574,44
633,70	-587,27
633,89	-556,03
634,09	-739,13
634,28	-556,58
634,47	-679,44
634,66	-561,23
634,85	-595,29
635,04	-580,12
635,24	-455,29
635,43	-513,64
635,62	-488,87
635,81	-596,79
636,00	-615,80
636,20	-668,42
636,39	-535,10
636,58	-654,58
636,77	-659,23
636,96	-558,23
637,15	-642,65
637,35	-578,60
637,54	-647,92
637,73	-647,48
637,92	-688,25
638,11	-685,67
638,30	-687,21
638,50	-694,26
638,69	-526,33
638,88	-586,09
639,07	-601,93
639,26	-558,49
639,45	-685,68
639,64	-605,66
639,84	-526,73
640,03	-653,55
640,22	-503,42
640,41	-621,24
640,60	-612,75
640,79	-572,55
640,98	-579,45
641,18	-552,28
641,37	-606,48
641,56	-650,26
641,75	-622,37
641,94	-645,89
642,13	-594,25
642,32	-634,61
642,52	-713,27
642,71	-698,58
642,90	-608,91
643,09	-606,77
643,28	-630,55
643,47	-521,18
643,66	-637,36
643,85	-664,84
644,04	-579,95
644,24	-536,41
644,43	-576,88
644,62	-485,50
644,81	-624,04
645,00	-547,90
645,19	-597,86
645,38	-588,81
645,57	-565,47
645,76	-629,59
645,96	-616,21
646,15	-547,10
646,34	-579,83
646,53	-489,51
646,72	-679,82
646,91	-525,53
647,10	-619,62
647,29	-522,06
647,48	-567,17
647,67	-586,04
647,86	-647,48
648,05	-450,76
648,25	-521,38
648,44	-550,82
648,63	-661,95
648,82	-606,52
649,01	-517,03
649,20	-598,75
649,39	-633,76
649,58	-621,94
649,77	-510,72
649,96	-654,45
650,15	-690,60
650,34	-531,10
650,53	-603,72
650,72	-692,53
650,91	-541,39
651,11	-556,49
651,30	-530,63
651,49	-549,50
651,68	-584,28
651,87	-564,28
652,06	-613,09
652,25	-585,66
652,44	-549,23
652,63	-545,20
652,82	-658,39
653,01	-578,22
653,20	-603,43
653,39	-648,30
653,58	-527,04
653,77	-630,66
653,96	-561,33
654,15	-545,99
654,34	-580,15
654,53	-462,64
654,72	-521,26
654,91	-618,69
655,10	-435,81
655,29	-500,60
655,48	-561,19
655,67	-524,17
655,86	-421,10
656,05	-585,31
656,24	-565,63
656,43	-647,81
656,62	-510,04
656,81	-497,12
657,00	-573,70
657,19	-612,92
657,38	-434,46
657,57	-501,20
657,76	-593,57
657,95	-432,66
658,14	-566,55
658,33	-555,05
658,52	-491,89
658,71	-480,49
658,90	-568,11
659,09	-547,51
659,28	-504,59
659,47	-609,09
659,66	-462,51
659,85	-591,75
660,04	-595,98
660,23	-598,81
660,42	-665,33
660,61	-565,82
660,80	-546,14
660,99	-563,07
661,18	-587,89
661,37	-550,04
661,56	-571,82
661,75	-665,95
661,94	-580,56
662,13	-557,25
662,32	-589,37
662,51	-571,79
662,70	-590,34
662,89	-522,62
663,08	-521,31
663,27	-531,44
663,46	-612,43
663,65	-584,35
663,83	-563,55
664,02	-581,21
664,21	-588,67
664,40	-556,05
664,59	-600,19
664,78	-522,44
664,97	-605,74
665,16	-512,65
665,35	-671,76
665,54	-477,54
665,73	-481,79
665,92	-526,78
666,11	-533,39
666,30	-692,62
666,49	-581,81
666,67	-520,25
666,86	-728,68
667,05	-541,93
667,24	-582,36
667,43	-497,81
667,62	-576,42
667,81	-597,05
668,00	-619,26
668,19	-589,24
668,38	-732,76
668,57	-597,85
668,76	-543,38
668,94	-497,74
669,13	-587,06
669,32	-575,23
669,51	-456,57
669,70	-629,84
669,89	-501,19
670,08	-596,44
670,27	-531,96
670,46	-588,76
670,64	-557,24
670,83	-559,88
671,02	-526,48
671,21	-471,03
671,40	-522,43
671,59	-570,52
671,78	-525,99
671,97	-519,14
672,16	-510,02
672,34	-636,82
672,53	-626,38
672,72	-490,76
672,91	-478,72
673,10	-538,95
673,29	-478,06
673,48	-490,89
673,66	-600,52
673,85	-693,68
674,04	-619,20
674,23	-594,12
674,42	-480,92
674,61	-552,68
674,80	-544,92
674,98	-534,10
675,17	-632,81
675,36	-495,47
675,55	-467,92
675,74	-524,99
675,93	-526,94
676,12	-566,32
676,30	-530,39
676,49	-576,09
676,68	-549,08
676,87	-550,43
677,06	-537,59
677,25	-570,83
677,43	-559,01
677,62	-514,12
677,81	-553,53
678,00	-546,09
678,19	-550,01
678,37	-564,35
678,56	-531,36
678,75	-582,16
678,94	-599,36
679,13	-606,02
679,32	-452,20
679,50	-530,12
679,69	-515,51
679,88	-579,42
680,07	-493,31
680,26	-624,39
680,44	-533,25
680,63	-512,49
680,82	-515,62
681,01	-544,86
681,20	-566,92
681,38	-586,93
681,57	-588,95
681,76	-517,73
681,95	-658,15
682,14	-478,84
682,32	-537,70
682,51	-542,59
682,70	-607,50
682,89	-548,10
683,07	-525,91
683,26	-498,90
683,45	-532,97
683,64	-490,96
683,83	-548,73
684,01	-565,32
684,20	-506,69
684,39	-623,83
684,58	-569,23
684,76	-532,50
684,95	-554,66
685,14	-587,02
685,33	-539,31
685,52	-489,16
685,70	-583,33
685,89	-473,50
686,08	-548,74
686,27	-487,56
686,45	-535,41
686,64	-545,09
686,83	-434,36
687,02	-445,28
687,20	-644,87
687,39	-457,09
687,58	-524,12
687,76	-507,08
687,95	-475,80
688,14	-451,17
688,33	-566,50
688,51	-596,81
688,70	-503,00
688,89	-493,99
689,08	-608,37
689,26	-489,40
689,45	-570,23
689,64	-528,81
689,83	-438,99
690,01	-332,04
690,20	-559,13
690,39	-553,49
690,57	-488,97
690,76	-512,54
690,95	-505,86
691,14	-501,63
691,32	-575,41
691,51	-576,81
691,70	-516,65
691,88	-554,05
692,07	-501,98
692,26	-534,90
692,44	-473,33
692,63	-513,09
692,82	-502,18
693,01	-514,38
693,19	-535,38
693,38	-502,64
693,57	-458,13
693,75	-485,98
693,94	-481,45
694,13	-447,85
694,31	-429,27
694,50	-328,64
694,69	-525,21
694,87	-361,83
695,06	-469,74
695,25	-500,03
695,43	-451,19
695,62	-458,43
695,81	-376,80
695,99	-364,45
696,18	-479,69
696,37	-479,83
696,55	-490,45
696,74	-467,08
696,93	-543,32
697,11	-510,99
697,30	-439,70
697,49	-432,91
697,67	-523,86
697,86	-485,77
698,05	-533,42
698,23	-435,86
698,42	-555,91
698,61	-479,71
698,79	-388,82
698,98	-548,65
699,17	-450,79
699,35	-463,02
699,54	-553,35
699,72	-484,30
699,91	-598,72
700,10	-532,69
700,28	-511,53
700,47	-457,79
700,66	-464,85
700,84	-517,09
701,03	-467,02
701,21	-502,60
701,40	-445,87
701,59	-564,77
701,77	-473,56
701,96	-532,15
702,15	-499,78
702,33	-447,17
702,52	-466,83
702,70	-521,38
702,89	-574,50
703,08	-464,57
703,26	-448,94
703,45	-511,25
703,63	-586,67
703,82	-585,53
704,01	-555,94
704,19	-601,61
704,38	-501,44
704,56	-479,99
704,75	-527,94
704,94	-564,53
705,12	-501,89
705,31	-571,97
705,49	-477,29
705,68	-497,97
705,86	-469,52
706,05	-528,94
706,24	-374,87
706,42	-502,29
706,61	-416,92
706,79	-525,88
706,98	-440,94
707,17	-475,69
707,35	-475,26
707,54	-445,46
707,72	-466,66
707,91	-573,73
708,09	-519,76
708,28	-523,42
708,46	-505,21
708,65	-456,87
708,84	-644,24
709,02	-497,37
709,21	-527,29
709,39	-502,04
709,58	-574,18
709,76	-507,52
709,95	-476,45
710,13	-609,72
710,32	-581,11
710,50	-533,44
710,69	-507,24
710,88	-500,35
711,06	-608,98
711,25	-452,45
711,43	-451,83
711,62	-435,13
711,80	-512,67
711,99	-474,78
712,17	-562,16
712,36	-510,39
712,54	-482,36
712,73	-486,49
712,91	-536,25
713,10	-547,71
713,28	-566,78
713,47	-577,49
713,65	-569,26
713,84	-514,76
714,02	-529,63
714,21	-572,76
714,39	-471,93
714,58	-512,25
714,76	-484,64
714,95	-484,72
715,13	-427,54
715,32	-421,16
715,50	-480,87
715,69	-614,34
715,87	-396,57
716,06	-493,94
716,24	-488,83
716,43	-485,66
716,61	-607,44
716,80	-537,05
716,98	-332,49
717,17	-571,01
717,35	-444,33
717,54	-508,60
717,72	-364,51
717,91	-442,19
718,09	-470,82
718,28	-365,78
718,46	-520,10
718,65	-443,85
718,83	-415,31
719,01	-368,14
719,20	-492,94
719,38	-453,50
719,57	-415,16
719,75	-340,63
719,94	-508,35
720,12	-387,69
720,31	-513,34
720,49	-439,27
720,68	-378,31
720,86	-477,73
721,04	-486,64
721,23	-441,73
721,41	-441,27
721,60	-370,51
721,78	-529,98
721,97	-508,57
722,15	-539,41
722,34	-488,85
722,52	-498,17
722,70	-465,04
722,89	-442,48
723,07	-504,30
723,26	-444,72
723,44	-386,10
723,63	-421,25
723,81	-406,71
723,99	-481,42
724,18	-439,04
724,36	-513,13
724,55	-493,61
724,73	-439,27
724,91	-337,11
725,10	-421,74
725,28	-406,27
725,47	-373,17
725,65	-503,65
725,83	-547,42
726,02	-460,14
726,20	-409,86
726,39	-332,37
726,57	-458,43
726,75	-374,39
726,94	-402,61
727,12	-409,33
727,31	-439,32
727,49	-462,38
727,67	-383,15
727,86	-470,62
728,04	-349,32
728,23	-379,29
728,41	-381,66
728,59	-359,17
728,78	-397,69
728,96	-405,64
729,14	-442,21
729,33	-402,15
729,51	-400,62
729,69	-437,73
729,88	-406,35
730,06	-451,02
730,25	-471,34
730,43	-562,94
730,61	-545,93
730,80	-477,96
730,98	-344,94
731,16	-531,53
731,35	-539,13
731,53	-515,08
731,71	-393,46
731,90	-520,80
732,08	-356,65
732,26	-426,57
732,45	-374,31
732,63	-566,48
732,81	-384,28
733,00	-419,69
733,18	-451,07
733,36	-555,57
733,55	-537,06
733,73	-539,69
733,91	-475,87
734,10	-356,07
734,28	-403,94
734,46	-474,24
734,65	-587,93
734,83	-480,85
735,01	-437,70
735,20	-426,66
735,38	-393,78
735,56	-411,79
735,75	-496,42
735,93	-469,68
736,11	-506,97
736,30	-467,38
736,48	-486,16
736,66	-420,52
736,84	-524,80
737,03	-479,72
737,21	-395,77
737,39	-486,57
737,58	-505,11
737,76	-420,20
737,94	-333,59
738,12	-314,33
738,31	-476,34
738,49	-303,35
738,67	-351,53
738,86	-418,02
739,04	-422,52
739,22	-596,10
739,40	-465,24
739,59	-474,09
739,77	-429,02
739,95	-605,42
740,14	-540,35
740,32	-533,04
740,50	-571,99
740,68	-480,90
740,87	-558,31
741,05	-633,57
741,23	-420,93
741,41	-564,33
741,60	-385,87
741,78	-531,54
741,96	-560,80
742,14	-535,89
742,33	-404,07
742,51	-525,00
742,69	-560,47
742,87	-495,25
743,06	-498,86
743,24	-445,69
743,42	-544,68
743,60	-448,79
743,79	-517,49
743,97	-437,06
744,15	-526,06
744,33	-499,21
744,52	-388,47
744,70	-415,80
744,88	-527,15
745,06	-421,61
745,24	-369,07
745,43	-436,06
745,61	-443,51
745,79	-440,80
745,97	-499,30
746,16	-519,19
746,34	-589,08
746,52	-617,69
746,70	-516,16
746,88	-542,05
747,07	-455,66
747,25	-537,34
747,43	-528,12
747,61	-468,27
747,79	-525,48
747,98	-460,58
748,16	-467,79
748,34	-568,14
748,52	-410,42
748,70	-432,11
748,89	-513,97
749,07	-447,15
749,25	-452,48
749,43	-518,84
749,61	-520,44
749,79	-577,61
749,98	-545,79
750,16	-388,95
750,34	-431,12
750,52	-419,78
750,70	-381,63
750,88	-314,47
751,07	-495,88
751,25	-355,93
751,43	-366,85
751,61	-301,27
751,79	-391,24
751,97	-455,65
752,16	-463,13
752,34	-386,11
752,52	-399,99
752,70	-490,96
752,88	-417,27
753,06	-498,84
753,25	-359,27
753,43	-412,64
753,61	-439,46
753,79	-520,69
753,97	-375,94
754,15	-380,48
754,33	-589,54
754,52	-621,68
754,70	-386,04
754,88	-456,31
755,06	-499,53
755,24	-565,41
755,42	-568,54
755,60	-464,38
755,78	-425,87
755,97	-450,90
756,15	-509,33
756,33	-485,73
756,51	-446,78
756,69	-501,23
756,87	-499,46
757,05	-467,63
757,23	-442,45
757,41	-497,56
757,60	-399,97
757,78	-554,47
757,96	-532,08
758,14	-442,82
758,32	-419,17
758,50	-427,50
758,68	-420,04
758,86	-432,28
759,04	-470,14
759,22	-499,71
759,41	-446,64
759,59	-468,29
759,77	-523,05
759,95	-356,16
760,13	-432,06
760,31	-431,63
760,49	-356,23
760,67	-322,38
760,85	-388,03
761,03	-426,99
761,21	-423,37
761,39	-329,31
761,57	-458,11
761,76	-389,06
761,94	-291,88
762,12	-256,26
762,30	-319,14
762,48	-245,47
762,66	-217,22
762,84	-176,39
763,02	51,90
763,20	33,33
763,38	74,83
763,56	111,80
763,74	-56,42
763,92	-244,49
764,10	-354,19
764,28	-185,09
764,46	-283,12
764,64	-318,15
764,82	-387,88
765,00	-323,75
765,19	-352,04
765,37	-362,59
765,55	-418,11
765,73	-373,45
765,91	-338,30
766,09	-255,29
766,27	-258,48
766,45	-241,96
766,63	-358,32
766,81	-371,53
766,99	-346,65
767,17	-307,61
767,35	-356,79
767,53	-427,51
767,71	-362,93
767,89	-427,82
768,07	-430,66
768,25	-421,78
768,43	-488,78
768,61	-370,90
768,79	-414,15
768,97	-464,41
769,15	-472,59
769,33	-403,70
769,51	-341,95
769,69	-371,78
769,87	-420,95
770,05	-378,83
770,23	-422,98
770,41	-498,78
770,59	-435,01
770,77	-440,58
770,95	-478,32
771,13	-389,12
771,31	-326,17
771,49	-411,40
771,67	-337,31
771,85	-372,45
772,03	-354,63
772,21	-233,89
772,38	-404,23
772,56	-285,02
772,74	-386,59
772,92	-316,42
773,10	-533,08
773,28	-345,64
773,46	-462,92
773,64	-414,44
773,82	-483,43
774,00	-465,92
774,18	-475,20
774,36	-442,16
774,54	-553,28
774,72	-588,06
774,90	-403,56
775,08	-456,00
775,26	-492,38
775,44	-516,47
775,62	-456,86
775,80	-405,39
775,97	-414,45
776,15	-436,94
776,33	-433,89
776,51	-407,91
776,69	-388,06
776,87	-494,17
777,05	-591,84
777,23	-435,59
777,41	-443,94
777,59	-321,09
777,77	-368,62
777,95	-419,74
778,13	-446,97
778,30	-434,58
778,48	-617,89
778,66	-600,25
778,84	-461,01
779,02	-480,52
779,20	-468,78
779,38	-515,56
779,56	-471,07
779,74	-382,50
779,92	-451,67
780,09	-438,11
780,27	-363,87
780,45	-377,04
780,63	-441,05
780,81	-459,94
780,99	-424,86
781,17	-483,91
781,35	-538,78
781,52	-553,74
781,70	-453,48
781,88	-502,58
782,06	-506,54
782,24	-439,50
782,42	-571,23
782,60	-321,89
782,78	-378,16
782,95	-468,25
783,13	-452,74
783,31	-518,33
783,49	-391,90
783,67	-425,65
783,85	-445,11
784,03	-465,94
784,20	-424,05
784,38	-403,42
784,56	-384,58
784,74	-299,19
784,92	-380,38
785,10	-373,42
785,28	-386,96
785,45	-405,87
785,63	-351,30
785,81	-429,96
785,99	-406,41
786,17	-365,02
786,35	-478,00
786,52	-364,14
786,70	-352,78
786,88	-424,96
787,06	-470,25
787,24	-393,02
787,41	-422,64
787,59	-407,40
787,77	-377,14
787,95	-319,53
788,13	-389,36
788,31	-417,62
788,48	-456,52
788,66	-475,80
788,84	-409,57
789,02	-458,69
789,20	-365,20
789,37	-376,57
789,55	-357,49
789,73	-455,76
789,91	-330,93
790,09	-389,64
790,26	-491,18
790,44	-395,17
790,62	-428,19
790,80	-336,71
790,98	-400,04
791,15	-362,09
791,33	-517,76
791,51	-393,81
791,69	-364,69
791,86	-394,08
792,04	-439,83
792,22	-411,72
792,40	-336,30
792,58	-374,21
792,75	-361,31
792,93	-450,07
793,11	-326,45
793,29	-480,28
793,46	-426,95
793,64	-310,93
793,82	-349,90
794,00	-311,71
794,17	-336,36
794,35	-185,20
794,53	-315,36
794,71	-236,94
794,88	-292,11
795,06	-497,11
795,24	-374,27
795,42	-300,55
795,59	-378,70
795,77	-337,49
795,95	-345,65
796,13	-396,04
796,30	-430,01
796,48	-307,40
796,66	-362,47
796,83	-378,67
797,01	-302,01
797,19	-374,05
797,37	-383,71
797,54	-360,17
797,72	-311,04
797,90	-383,93
798,08	-291,46
798,25	-329,70
798,43	-449,96
798,61	-340,21
798,78	-447,89
798,96	-377,65
799,14	-324,83
799,31	-245,08
799,49	-321,49
799,67	-399,72
799,85	-399,48
800,02	-406,18
800,20	-222,21
800,38	-304,25
800,55	-267,39
800,73	-218,05
800,91	-268,03
801,08	-279,88
801,26	-350,63
801,44	-244,03
801,61	-290,74
801,79	-391,23
801,97	-321,56
802,15	-314,42
802,32	-347,41
802,50	-359,74
802,68	-299,57
802,85	-434,17
803,03	-472,27
803,21	-386,73
803,38	-382,26
803,56	-450,92
803,74	-294,59
803,91	-416,51
804,09	-349,52
804,26	-350,25
804,44	-372,40
804,62	-320,54
804,79	-381,74
804,97	-432,86
805,15	-297,84
805,32	-280,44
805,50	-489,68
805,68	-333,87
805,85	-368,64
806,03	-370,66
806,21	-367,43
806,38	-315,69
806,56	-331,96
806,73	-269,24
806,91	-429,91
807,09	-329,76
807,26	-243,81
807,44	-465,40
807,62	-336,79
807,79	-269,97
807,97	-300,50
808,14	-417,22
808,32	-423,70
808,50	-351,72
808,67	-342,06
808,85	-282,45
809,02	-436,40
809,20	-217,92
809,38	-280,43
809,55	-207,09
809,73	-248,79
809,90	-147,80
810,08	-279,46
810,26	-233,22
810,43	-165,42
810,61	-59,21
810,78	-134,87
810,96	10,04
811,14	64,71
811,31	19,95
811,49	7,51
811,66	-112,49
811,84	-122,90
812,02	-77,60
812,19	-281,15
812,37	-193,02
812,54	-374,66
812,72	-321,67
812,89	-314,00
813,07	-393,49
813,25	-399,64
813,42	-386,76
813,60	-281,15
813,77	-458,40
813,95	-294,94
814,12	-287,27
814,30	-328,19
814,47	-284,91
814,65	-247,53
814,83	-375,70
815,00	-386,37
815,18	-389,27
815,35	-327,60
815,53	-419,23
815,70	-231,53
815,88	-322,85
816,05	-417,65
816,23	-247,01
816,40	-241,81
816,58	-266,18
816,75	-180,82
816,93	-214,79
817,10	172,21
817,28	301,45
817,46	558,57
817,63	828,51
817,81	1090,77
817,98	1344,70
818,16	1464,49
818,33	1589,09
818,51	1687,67
818,68	1982,02
818,86	2182,50
819,03	2384,25
819,21	2370,92
819,38	1984,23
819,56	1408,12
819,73	1069,51
819,91	735,12
820,08	515,72
820,26	272,25
820,43	67,48
820,61	-49,81
820,78	-129,14
820,96	-96,90
821,13	-157,60
821,31	-139,36
821,48	-224,61
821,66	-301,74
821,83	-326,09
822,00	-185,79
822,18	-225,54
822,35	-325,83
822,53	-254,57
822,70	-217,61
822,88	-231,49
823,05	-310,47
823,23	-276,13
823,40	-308,78
823,58	-275,83
823,75	-227,02
823,93	-191,89
824,10	-235,15
824,28	-305,23
824,45	-268,92
824,62	-171,92
824,80	-329,06
824,97	-418,11
825,15	-441,79
825,32	-251,97
825,50	-245,15
825,67	-206,80
825,85	-244,04
826,02	-165,60
826,19	-288,08
826,37	-330,32
826,54	-223,40
826,72	-192,77
826,89	-336,84
827,07	-299,48
827,24	-253,88
827,41	-306,49
827,59	-249,00
827,76	-332,05
827,94	-281,72
828,11	-387,51
828,28	-236,59
828,46	-347,56
828,63	-331,30
828,81	-219,53
828,98	-324,09
829,15	-367,61
829,33	-251,73
829,50	-294,65
829,68	-393,65
829,85	-307,09
830,02	-313,72
830,20	-305,87
830,37	-293,97
830,55	-438,71
830,72	-366,02
830,89	-207,21
831,07	-305,04
831,24	-326,52
831,42	-346,67
831,59	-259,24
831,76	-354,19
831,94	-283,92
832,11	-330,21
832,28	-325,32
832,46	-294,10
832,63	-284,95
832,81	-319,30
832,98	-303,01
833,15	-363,70
833,33	-261,18
833,50	-199,42
833,67	-370,68
833,85	-264,10
834,02	-231,84
834,19	-298,74
834,37	-374,18
834,54	-358,17
834,71	-316,64
834,89	-330,46
835,06	-376,00
835,23	-270,21
835,41	-333,68
835,58	-273,21
835,75	-235,56
835,93	-317,24
836,10	-317,41
836,27	-361,76
836,45	-315,54
836,62	-300,28
836,79	-428,69
836,97	-303,78
837,14	-345,08
837,31	-324,55
837,49	-363,85
837,66	-334,62
837,83	-373,09
838,01	-251,50
838,18	-441,76
838,35	-413,03
838,53	-293,24
838,70	-213,50
838,87	-355,55
839,04	-229,35
839,22	-338,30
839,39	-332,73
839,56	-296,66
839,74	-363,26
839,91	-346,27
840,08	-291,51
840,26	-292,39
840,43	-239,89
840,60	-226,35
840,77	-186,67
840,95	-265,98
841,12	-262,41
841,29	-216,19
841,46	-305,82
841,64	-180,54
841,81	-351,00
841,98	-211,37
842,16	-284,14
842,33	-374,04
842,50	-179,69
842,67	-236,67
842,85	-257,03
843,02	-336,11
843,19	-223,26
843,36	-413,38
843,54	-249,52
843,71	-362,40
843,88	-350,75
844,05	-316,57
844,23	-288,85
844,40	-293,56
844,57	-202,59
844,74	-337,47
844,92	-430,54
845,09	-250,17
845,26	-299,77
845,43	-215,87
845,61	-367,51
845,78	-304,59
845,95	-338,94
846,12	-378,32
846,29	-344,34
846,47	-372,09
846,64	-343,33
846,81	-302,17
846,98	-247,31
847,16	-194,66
847,33	-324,12
847,50	-258,99
847,67	-310,26
847,84	-256,60
848,02	-281,74
848,19	-343,47
848,36	-305,79
848,53	-261,81
848,70	-321,68
848,88	-306,87
849,05	-241,75
849,22	-359,53
849,39	-342,75
849,56	-239,41
849,74	-248,30
849,91	-277,06
850,08	-397,74
850,25	-222,92
850,42	-265,53
850,60	-279,86
850,77	-387,51
850,94	-222,55
851,11	-361,40
851,28	-325,34
851,45	-271,42
851,63	-414,50
851,80	-331,95
851,97	-287,61
852,14	-325,00
852,31	-356,42
852,48	-261,30
852,66	-272,17
852,83	-273,31
853,00	-275,51
853,17	-234,09
853,34	-299,40
853,51	-277,21
853,68	-311,85
853,86	-196,38
854,03	-260,90
854,20	-253,27
854,37	-271,55
854,54	-321,11
854,71	-318,33
854,88	-251,90
855,06	-322,80
855,23	-313,94
855,40	-254,35
855,57	-142,60
855,74	-350,33
855,91	-353,32
856,08	-358,73
856,25	-332,55
856,43	-245,80
856,60	-306,03
856,77	-376,88
856,94	-201,96
857,11	-352,43
857,28	-311,51
857,45	-325,76
857,62	-231,45
857,79	-325,58
857,97	-321,51
858,14	-247,16
858,31	-422,85
858,48	-317,80
858,65	-262,12
858,82	-222,58
858,99	-240,96
859,16	-312,50
859,33	-177,49
859,50	-333,30
859,67	-305,82
859,85	-171,42
860,02	-241,24
860,19	-353,54
860,36	-153,10
860,53	-342,39
860,70	-346,29
860,87	-268,52
861,04	-327,84
861,21	-331,76
861,38	-372,29
861,55	-297,46
861,72	-231,83
861,89	-445,81
862,06	-272,40
862,23	-327,54
862,41	-342,00
862,58	-229,46
862,75	-337,69
862,92	-348,29
863,09	-273,39
863,26	-223,96
863,43	-158,76
863,60	-309,40
863,77	-179,64
863,94	-304,83
864,11	-312,63
864,28	-268,29
864,45	-310,73
864,62	-328,08
864,79	-320,73
864,96	-298,21
865,13	-407,49
865,30	-353,96
865,47	-323,38
865,64	-252,79
865,81	-346,87
865,98	-384,50
866,15	-303,35
866,32	-395,29
866,49	-380,10
866,66	-196,51
866,83	-328,70
867,00	-378,99
867,17	-304,95
867,34	-251,14
867,51	-469,21
867,68	-265,72
867,85	-366,34
868,02	-317,02
868,19	-244,38
868,36	-249,24
868,53	-296,49
868,70	-257,98
868,87	-320,01
869,04	-414,28
869,21	-280,43
869,38	-214,60
869,55	-210,62
869,72	-374,43
869,89	-343,18
870,06	-310,57
870,23	-265,39
870,40	-331,51
870,57	-372,19
870,74	-306,11
870,91	-264,54
871,08	-243,80
871,25	-283,19
871,42	-231,29
871,59	-349,16
871,76	-315,09
871,93	-292,93
872,10	-287,73
872,27	-315,97
872,44	-287,61
872,60	-271,78
872,77	-251,02
872,94	-346,17
873,11	-286,90
873,28	-352,50
873,45	-249,39
873,62	-359,92
873,79	-310,10
873,96	-351,28
874,13	-218,98
874,30	-242,63
874,47	-291,79
874,64	-315,83
874,81	-249,52
874,97	-312,61
875,14	-245,56
875,31	-208,80
875,48	-327,85
875,65	-286,39
875,82	-378,04
875,99	-311,84
876,16	-301,84
876,33	-360,05
876,50	-248,10
876,67	-378,90
876,83	-274,72
877,00	-304,83
877,17	-216,35
877,34	-277,65
877,51	-334,10
877,68	-358,55
877,85	-217,35
878,02	-327,69
878,19	-217,16
878,35	-391,75
878,52	-286,33
878,69	-245,39
878,86	-177,33
879,03	-348,26
879,20	-388,49
879,37	-273,85
879,54	-173,85
879,70	-314,88
879,87	-193,03
880,04	-335,96
880,21	-193,77
880,38	-294,65
880,55	-275,20
880,72	-242,96
880,89	-249,64
881,05	-336,42
881,22	-276,05
881,39	-214,38
881,56	-306,30
881,73	-222,63
881,90	-390,23
882,06	-293,76
882,23	-230,19
882,40	-272,30
882,57	-250,55
882,74	-253,84
882,91	-271,10
883,07	-338,48
883,24	-277,48
883,41	-176,02
883,58	-203,00
883,75	-270,17
883,92	-272,60
884,08	-307,57
884,25	-226,37
884,42	-268,60
884,59	-218,39
884,76	-437,97
884,92	-212,84
885,09	-378,62
885,26	-312,51
885,43	-274,15
885,60	-341,90
885,76	-251,13
885,93	-258,88
886,10	-267,62
886,27	-281,98
886,44	-224,60
886,60	-304,56
886,77	-250,02
886,94	-266,07
887,11	-161,48
887,28	-298,51
887,44	-341,04
887,61	-271,59
887,78	-261,08
887,95	-324,13
888,12	-252,14
888,28	-239,31
888,45	-325,28
888,62	-232,43
888,79	-262,50
888,95	-303,49
889,12	-265,50
889,29	-288,22
889,46	-284,60
889,62	-316,52
889,79	-440,74
889,96	-294,07
890,13	-292,31
890,29	-282,56
890,46	-331,30
890,63	-253,93
890,80	-274,20
890,96	-277,09
891,13	-179,76
891,30	-259,93
891,47	-146,42
891,63	-363,41
891,80	-191,72
891,97	-313,80
892,14	-312,82
892,30	-208,74
892,47	-289,13
892,64	-304,80
892,80	-334,41
892,97	-301,85
893,14	-270,53
893,31	-297,59
893,47	-258,49
893,64	-309,71
893,81	-315,11
893,97	-243,19
894,14	-261,41
>>>>>End Processed Spectral Data<<<<<
