SpectraSuite Datei
++++++++++++++++++++++++++++++++++++
Datum: Mon Jun 06 14:36:32 CEST 2016
Benutzer: Admin
Dark-Spektrum vorhanden: Ja
Referenz-Spektrum vorhanden: Ja
Zahl der probierten Teilspektren: 1
Spektrometer: USB4H10187
Integrationszeit (usec): 200000 (USB4H10187)
Spektren Durchschnitt berechnet: 20 (USB4H10187)
Boxcar Glättung: 0 (USB4H10187)
Dunkelstromkorrektur: Nein (USB4H10187)
Puls/Lampe aktiviert: Nein (USB4H10187)
Correct for Detector Non-linearity: Nein (USB4H10187)
Streulichtkorrektur: Nein (USB4H10187)
Anzahl Pixel in verarbeitetem Spektrum: 3648
>>>>>Begin Processed Spectral Data<<<<<
176,80	6,96
177,02	6,96
177,24	6,96
177,46	4,81
177,68	20,48
177,91	57,14
178,13	44,44
178,35	48,13
178,57	53,25
178,79	50,38
179,02	42,80
179,24	39,22
179,46	58,16
179,68	74,85
179,90	37,58
180,12	37,17
180,35	43,01
180,57	53,76
180,79	95,03
181,01	100,56
181,23	83,76
181,46	93,28
181,68	99,33
181,90	96,97
182,12	104,34
182,34	84,58
182,56	89,09
182,79	44,44
183,01	111,31
183,23	98,51
183,45	94,10
183,67	101,48
183,89	103,22
184,12	89,09
184,34	99,33
184,56	119,40
184,78	99,33
185,00	101,68
185,22	80,59
185,45	97,69
185,67	92,67
185,89	96,66
186,11	92,06
186,33	88,98
186,55	107,31
186,77	71,68
187,00	125,95
187,22	99,02
187,44	111,92
187,66	96,56
187,88	90,83
188,10	96,15
188,32	120,83
188,55	104,04
188,77	92,16
188,99	120,93
189,21	96,25
189,43	121,24
189,65	112,95
189,87	85,81
190,10	106,49
190,32	115,20
190,54	98,92
190,76	102,30
190,98	106,70
191,20	95,64
191,42	102,40
191,64	105,27
191,87	93,90
192,09	104,75
192,31	103,42
192,53	117,86
192,75	103,22
192,97	92,88
193,19	71,78
193,41	91,95
193,64	108,44
193,86	98,61
194,08	96,77
194,30	91,44
194,52	103,73
194,74	93,90
194,96	116,22
195,18	104,14
195,40	83,76
195,63	114,79
195,85	87,14
196,07	87,76
196,29	117,45
196,51	112,74
196,73	107,72
196,95	87,24
197,17	106,29
197,39	109,16
197,61	126,56
197,84	114,07
198,06	117,04
198,28	129,12
198,50	93,28
198,72	95,95
198,94	110,49
199,16	95,44
199,38	113,87
199,60	108,54
199,82	100,96
200,04	106,60
200,26	104,96
200,49	118,07
200,71	108,44
200,93	122,16
201,15	106,39
201,37	106,90
201,59	105,06
201,81	107,11
202,03	110,28
202,25	101,99
202,47	105,16
202,69	111,72
202,91	103,22
203,13	96,87
203,35	96,87
203,58	90,11
203,80	119,50
204,02	93,18
204,24	111,72
204,46	122,26
204,68	112,74
204,90	92,88
205,12	111,20
205,34	144,07
205,56	92,26
205,78	122,06
206,00	124,52
206,22	103,52
206,44	138,03
206,66	102,09
206,88	128,10
207,10	130,76
207,32	122,26
207,54	116,32
207,76	121,44
207,99	92,98
208,21	110,28
208,43	100,04
208,65	122,06
208,87	113,87
209,09	139,36
209,31	131,48
209,53	99,94
209,75	113,15
209,97	92,36
210,19	110,59
210,41	119,40
210,63	130,05
210,85	101,17
211,07	111,82
211,29	110,28
211,51	130,66
211,73	133,53
211,95	123,29
212,17	122,37
212,39	96,87
212,61	131,27
212,83	107,21
213,05	133,22
213,27	117,55
213,49	133,32
213,71	109,36
213,93	136,80
214,15	112,43
214,37	119,60
214,59	111,00
214,81	117,04
215,03	117,96
215,25	108,75
215,47	123,70
215,69	132,40
215,91	127,90
216,13	112,84
216,35	120,32
216,57	120,73
216,79	134,86
217,01	134,55
217,23	102,09
217,45	111,82
217,67	134,65
217,89	148,68
218,11	120,52
218,33	118,58
218,55	143,46
218,77	120,01
218,99	115,81
219,21	132,91
219,43	126,67
219,65	103,32
219,87	120,22
220,09	121,96
220,31	116,22
220,53	124,62
220,75	109,98
220,97	122,57
221,19	130,76
221,41	138,03
221,63	109,05
221,85	121,85
222,06	96,36
222,28	112,02
222,50	125,23
222,72	101,58
222,94	130,35
223,16	122,57
223,38	109,16
223,60	113,15
223,82	105,16
224,04	131,38
224,26	116,22
224,48	119,29
224,70	147,56
224,92	123,70
225,14	148,17
225,36	137,73
225,58	91,75
225,80	141,92
226,02	120,63
226,24	145,61
226,45	137,32
226,67	108,44
226,89	139,47
227,11	134,96
227,33	133,94
227,55	99,53
227,77	124,62
227,99	147,56
228,21	153,70
228,43	134,55
228,65	148,58
228,87	112,02
229,09	107,83
229,31	142,74
229,52	141,72
229,74	144,89
229,96	112,23
230,18	123,80
230,40	137,73
230,62	126,15
230,84	164,35
231,06	130,35
231,28	114,58
231,50	126,36
231,72	139,47
231,94	161,89
232,15	123,70
232,37	123,70
232,59	119,40
232,81	135,99
233,03	131,38
233,25	123,80
233,47	146,53
233,69	124,62
233,91	129,43
234,13	112,13
234,34	138,95
234,56	145,82
234,78	123,59
235,00	117,55
235,22	130,35
235,44	126,15
235,66	138,85
235,88	146,22
236,10	142,23
236,31	134,65
236,53	160,36
236,75	124,62
236,97	153,09
237,19	132,61
237,41	126,77
237,63	140,90
237,85	120,52
238,07	134,96
238,28	146,74
238,50	155,13
238,72	140,39
238,94	124,00
239,16	141,11
239,38	145,92
239,60	144,69
239,81	161,99
240,03	146,74
240,25	129,84
240,47	141,62
240,69	145,30
240,91	124,72
241,13	139,26
241,34	156,57
241,56	112,54
241,78	137,42
242,00	149,40
242,22	150,12
242,44	157,18
242,66	115,61
242,87	137,42
243,09	132,61
243,31	147,66
243,53	127,59
243,75	160,77
243,97	148,48
244,19	149,60
244,40	140,18
244,62	145,00
244,84	152,88
245,06	163,84
245,28	150,12
245,50	147,66
245,71	119,19
245,93	134,55
246,15	159,13
246,37	154,62
246,59	147,35
246,81	94,41
247,02	141,62
247,24	152,47
247,46	147,04
247,68	176,53
247,90	135,37
248,11	139,57
248,33	128,51
248,55	142,74
248,77	140,80
248,99	170,49
249,21	131,58
249,42	138,24
249,64	141,41
249,86	133,32
250,08	151,55
250,30	155,24
250,51	116,43
250,73	145,61
250,95	140,49
251,17	149,71
251,39	158,10
251,60	155,95
251,82	147,45
252,04	133,83
252,26	159,74
252,48	133,53
252,69	149,09
252,91	149,09
253,13	151,65
253,35	151,55
253,57	143,15
253,78	143,97
254,00	140,29
254,22	152,88
254,44	148,58
254,65	167,32
254,87	133,22
255,09	172,75
255,31	150,32
255,53	150,63
255,74	148,68
255,96	168,96
256,18	157,80
256,40	146,63
256,61	152,57
256,83	161,07
257,05	136,50
257,27	142,13
257,48	173,36
257,70	151,86
257,92	103,73
258,14	168,96
258,36	153,09
258,57	146,02
258,79	160,97
259,01	173,05
259,23	155,75
259,44	151,24
259,66	151,65
259,88	127,38
260,10	153,50
260,31	163,53
260,53	141,00
260,75	148,07
260,97	139,57
261,18	149,19
261,40	146,94
261,62	163,02
261,84	141,51
262,05	170,80
262,27	157,08
262,49	168,45
262,71	155,75
262,92	171,62
263,14	151,75
263,36	145,82
263,57	158,92
263,79	168,24
264,01	188,52
264,23	178,38
264,44	165,17
264,66	162,71
264,88	165,78
265,10	153,09
265,31	175,41
265,53	161,69
265,75	178,48
265,96	156,77
266,18	161,18
266,40	179,71
266,62	199,68
266,83	157,90
267,05	178,17
267,27	185,14
267,48	182,27
267,70	168,96
267,92	191,08
268,14	143,36
268,35	171,11
268,57	164,86
268,79	157,90
269,00	164,76
269,22	184,62
269,44	162,71
269,65	157,59
269,87	168,96
270,09	173,77
270,31	152,78
270,52	171,72
270,74	142,03
270,96	159,64
271,17	161,48
271,39	175,92
271,61	170,29
271,82	169,47
272,04	162,81
272,26	157,08
272,47	195,27
272,69	149,81
272,91	168,65
273,12	193,64
273,34	159,74
273,56	156,36
273,77	160,15
273,99	177,35
274,21	155,54
274,42	161,28
274,64	186,88
274,86	172,23
275,08	175,51
275,29	172,34
275,51	187,70
275,72	167,83
275,94	191,28
276,16	158,41
276,37	161,58
276,59	156,87
276,81	170,29
277,02	170,19
277,24	150,32
277,46	182,27
277,67	179,20
277,89	173,46
278,11	172,75
278,32	178,58
278,54	188,52
278,76	190,36
278,97	150,32
279,19	183,40
279,41	170,49
279,62	171,52
279,84	192,10
280,05	157,59
280,27	183,70
280,49	177,05
280,70	184,52
280,92	189,33
281,14	179,20
281,35	177,25
281,57	180,63
281,79	162,71
282,00	181,04
282,22	177,66
282,43	181,86
282,65	170,90
282,87	167,93
283,08	172,95
283,30	196,81
283,52	177,87
283,73	174,59
283,95	186,67
284,16	168,45
284,38	185,03
284,60	178,89
284,81	181,35
285,03	193,64
285,24	184,73
285,46	193,12
285,68	174,28
285,89	201,72
286,11	171,82
286,32	165,17
286,54	197,42
286,76	188,52
286,97	182,37
287,19	180,84
287,40	210,33
287,62	170,29
287,84	206,64
288,05	210,53
288,27	185,96
288,48	173,67
288,70	187,59
288,92	177,66
289,13	166,40
289,35	185,75
289,56	202,03
289,78	208,18
289,99	210,02
290,21	183,29
290,43	182,47
290,64	198,45
290,86	182,78
291,07	192,10
291,29	185,96
291,51	202,75
291,72	221,18
291,94	196,91
292,15	173,57
292,37	171,82
292,58	192,51
292,80	202,03
293,01	205,00
293,23	190,87
293,45	189,64
293,66	211,45
293,88	215,04
294,09	203,36
294,31	211,56
294,52	222,72
294,74	221,39
294,96	210,22
295,17	187,29
295,39	191,69
295,60	190,15
295,82	185,65
296,03	195,27
296,25	194,25
296,46	209,30
296,68	222,61
296,89	222,00
297,11	217,70
297,32	231,63
297,54	213,91
297,76	235,62
297,97	205,62
298,19	215,96
298,40	211,25
298,62	229,27
298,83	225,69
299,05	248,83
299,26	242,27
299,48	264,09
299,69	279,34
299,91	255,79
300,12	257,43
300,34	292,76
300,55	273,81
300,77	312,72
300,98	338,32
301,20	338,32
301,41	343,85
301,63	378,77
301,84	382,05
302,06	411,13
302,28	405,40
302,49	473,59
302,71	513,84
302,92	515,88
303,14	593,40
303,35	609,48
303,57	637,43
303,78	641,83
304,00	670,40
304,21	698,77
304,43	759,39
304,64	837,62
304,86	847,04
305,07	891,38
305,29	968,18
305,50	948,41
305,71	984,05
305,93	990,70
306,14	1035,96
306,36	1111,64
306,57	1168,57
306,79	1211,27
307,00	1332,82
307,22	1404,29
307,43	1482,63
307,65	1583,49
307,86	1602,33
308,08	1648,41
308,29	1664,69
308,51	1679,85
308,72	1669,09
308,94	1679,54
309,15	1692,75
309,37	1705,55
309,58	1738,73
309,80	1861,81
310,01	2044,49
310,22	2205,76
310,44	2429,81
310,65	2628,88
310,87	2851,18
311,08	2904,84
311,30	2935,76
311,51	2961,87
311,73	2925,83
311,94	2942,01
312,16	3084,34
312,37	3126,63
312,58	3270,40
312,80	3279,21
313,01	3451,95
313,23	3517,28
313,44	3634,43
313,66	3644,36
313,87	3733,45
314,09	3801,13
314,30	3813,11
314,51	3895,95
314,73	3940,80
314,94	3921,66
315,16	3877,32
315,37	3901,79
315,59	3840,76
315,80	3772,87
316,01	3890,12
316,23	4126,35
316,44	4480,65
316,66	4704,29
316,87	5053,36
317,09	5236,76
317,30	5258,47
317,51	5215,97
317,73	5058,79
317,94	4956,80
318,16	5012,61
318,37	5093,91
318,58	5218,63
318,80	5320,73
319,01	5487,74
319,23	5499,82
319,44	5667,65
319,66	5753,26
319,87	6156,60
320,08	6360,27
320,30	6468,20
320,51	6573,37
320,73	6515,41
320,94	6235,45
321,15	6228,28
321,37	6207,29
321,58	6260,23
321,80	6165,92
322,01	6082,06
322,22	6158,24
322,44	5900,40
322,65	5985,19
322,86	6013,45
323,08	6066,08
323,29	6184,25
323,51	6501,58
323,72	6835,61
323,93	7071,12
324,15	7218,37
324,36	7502,73
324,58	7464,85
324,79	7704,66
325,00	7803,27
325,22	8157,57
325,43	8574,44
325,64	8961,19
325,86	9389,32
326,07	9554,18
326,28	9717,92
326,50	9809,67
326,71	9871,41
326,93	9796,56
327,14	9646,75
327,35	9668,87
327,57	9480,15
327,78	9320,00
327,99	9217,91
328,21	9325,02
328,42	9602,72
328,63	9734,20
328,85	10303,74
329,06	10613,50
329,27	11165,73
329,49	11128,46
329,70	11422,34
329,91	11174,13
330,13	10921,82
330,34	10600,08
330,56	10418,73
330,77	10217,73
330,98	10375,01
331,20	10227,76
331,41	10340,71
331,62	10624,96
331,84	10526,66
332,05	10532,81
332,26	10517,75
332,48	10476,28
332,69	10620,56
332,90	10372,65
333,11	10272,30
333,33	10375,83
333,54	10411,05
333,75	10420,99
333,97	10509,15
334,18	10682,20
334,39	10883,52
334,61	11158,26
334,82	11166,55
335,03	11294,04
335,25	11049,41
335,46	10709,65
335,67	10407,57
335,89	9990,91
336,10	9674,60
336,31	9395,26
336,53	9483,43
336,74	9406,01
336,95	9433,56
337,16	9553,98
337,38	9668,87
337,59	10015,39
337,80	9990,61
338,02	10165,40
338,23	10177,79
338,44	10400,51
338,65	10411,98
338,87	10361,29
339,08	10390,57
339,29	10601,82
339,51	10609,40
339,72	10837,75
339,93	10897,14
340,14	11151,50
340,36	11252,05
340,57	11256,15
340,78	11357,11
341,00	11557,30
341,21	11904,33
341,42	12161,76
341,63	12526,20
341,85	12626,14
342,06	13230,90
342,27	13436,21
342,49	13570,76
342,70	13966,12
342,91	13857,68
343,12	13362,18
343,34	12915,51
343,55	12158,69
343,76	11516,75
343,97	10636,84
344,19	10512,94
344,40	10887,41
344,61	10973,53
344,82	11382,61
345,04	11679,57
345,25	11840,13
345,46	11773,06
345,67	11842,89
345,89	11821,80
346,10	11644,55
346,31	12042,67
346,52	12203,13
346,74	12019,32
346,95	12139,74
347,16	12193,50
347,37	11623,14
347,59	11588,64
347,80	11734,45
348,01	12027,41
348,22	11819,75
348,43	12114,55
348,65	11604,92
348,86	11523,41
349,07	11837,16
349,28	11874,23
349,50	12184,70
349,71	12799,80
349,92	12914,59
350,13	13557,96
350,34	13634,25
350,56	13614,59
350,77	13658,42
350,98	13239,40
351,19	13181,96
351,41	13395,46
351,62	12870,87
351,83	12675,90
352,04	12664,54
352,25	12368,30
352,47	12745,43
352,68	12744,71
352,89	13124,61
353,10	13688,73
353,31	14155,56
353,53	14682,71
353,74	14579,28
353,95	15077,86
354,16	15013,66
354,37	15303,24
354,59	14915,25
354,80	15155,89
355,01	14968,30
355,22	14646,25
355,43	14506,68
355,65	14102,01
355,86	13846,21
356,07	13466,93
356,28	12865,03
356,49	12568,18
356,70	12169,75
356,92	11570,41
357,13	11664,10
357,34	11348,31
357,55	11297,82
357,76	10723,16
357,98	10350,84
358,19	10180,96
358,40	10490,11
358,61	10945,68
358,82	11680,38
359,03	12813,83
359,25	13739,31
359,46	14718,34
359,67	14513,85
359,88	14551,23
360,09	14116,55
360,30	13637,12
360,51	13329,41
360,73	13106,90
360,94	12902,92
361,15	12734,06
361,36	12688,29
361,57	12876,71
361,78	12954,32
362,00	13414,81
362,21	13879,39
362,42	14338,34
362,63	14429,17
362,84	14534,23
363,05	14296,26
363,26	14310,49
363,48	14267,38
363,69	14488,05
363,90	14579,18
364,11	14742,71
364,32	14766,06
364,53	14609,49
364,74	15114,01
364,95	15455,51
365,17	16128,16
365,38	16831,74
365,59	17414,60
365,80	17693,84
366,01	17879,48
366,22	17988,85
366,43	17812,92
366,64	17627,69
366,86	17652,36
367,07	17632,81
367,28	17245,84
367,49	16925,13
367,70	16956,26
367,91	16575,24
368,12	16391,02
368,33	16287,70
368,54	16361,43
368,76	16759,04
368,97	17295,61
369,18	17966,32
369,39	17787,53
369,60	18029,40
369,81	17768,69
370,02	17423,30
370,23	17064,09
370,44	16851,30
370,65	16823,86
370,87	17053,33
371,08	17259,46
371,29	17297,45
371,50	16929,64
371,71	16629,10
371,92	15928,90
372,13	15903,40
372,34	15888,65
372,55	15226,65
372,76	14724,28
372,97	14550,31
373,18	13890,55
373,40	13715,14
373,61	13472,05
373,82	13306,16
374,03	13304,22
374,24	13585,92
374,45	13321,63
374,66	13747,71
374,87	13914,51
375,08	14608,98
375,29	15300,58
375,50	15471,07
375,71	15816,36
375,92	15481,72
376,13	15621,19
376,34	15997,81
376,56	16122,53
376,77	16468,43
376,98	17076,68
377,19	17804,63
377,40	18602,42
377,61	19264,73
377,82	19340,20
378,03	19459,59
378,24	19303,95
378,45	18399,46
378,66	17653,90
378,87	16551,07
379,08	16109,83
379,29	16091,81
379,50	15639,01
379,71	15612,38
379,92	16451,54
380,13	16863,08
380,34	17092,24
380,55	17129,72
380,76	17049,14
380,97	16977,87
381,18	15890,29
381,39	14961,85
381,60	14340,70
381,81	13276,26
382,02	12761,30
382,24	12020,04
382,45	11177,51
382,66	10776,82
382,87	10522,05
383,08	10279,27
383,29	10491,95
383,50	10735,96
383,71	11396,84
383,92	12166,78
384,13	12839,43
384,34	13816,83
384,55	14240,96
384,76	14808,66
384,97	14722,44
385,18	14639,50
385,39	14326,26
385,60	14231,54
385,81	14196,31
386,02	14265,02
386,23	14417,39
386,44	14947,20
386,65	14651,37
386,86	14530,95
387,07	14464,91
387,28	14709,84
387,49	14388,82
387,70	14563,00
387,91	14381,45
388,12	14398,04
388,32	14444,94
388,53	14619,63
388,74	15238,01
388,95	15906,16
389,16	16438,94
389,37	17082,00
389,58	17365,44
389,79	17721,69
390,00	17793,47
390,21	17987,10
390,42	18406,84
390,63	18632,01
390,84	19160,08
391,05	19155,57
391,26	19374,71
391,47	18764,10
391,68	18484,35
391,89	17121,33
392,10	16256,78
392,31	14627,62
392,52	13206,22
392,73	11513,68
392,94	10148,91
393,15	9734,00
393,36	9589,00
393,57	10185,16
393,78	11512,25
393,98	13064,20
394,19	14232,26
394,40	15266,79
394,61	16304,19
394,82	17859,21
395,03	18232,66
395,24	18222,31
395,45	17710,32
395,66	16961,28
395,87	15547,36
396,08	14115,52
396,29	12518,21
396,50	11586,69
396,71	10938,92
396,92	11473,85
397,12	12926,47
397,33	14486,82
397,54	16281,04
397,75	18389,22
397,96	19375,32
398,17	20785,45
398,38	21604,43
398,59	22522,84
398,80	22378,26
399,01	22951,38
399,22	23821,67
399,43	23367,12
399,63	23373,47
399,84	24434,93
400,05	23775,38
400,26	23876,04
400,47	24475,38
400,68	24328,54
400,89	24522,89
401,10	24942,93
401,31	24980,00
401,52	25078,50
401,72	25508,27
401,93	25291,08
402,14	25304,50
402,35	25047,89
402,56	25396,86
402,77	24285,33
402,98	24307,55
403,19	24510,91
403,40	24293,11
403,60	24394,48
403,81	24357,21
404,02	24160,30
404,23	24357,93
404,44	24053,19
404,65	24128,96
404,86	23946,28
405,07	24210,47
405,27	23683,22
405,48	24171,05
405,69	23172,15
405,90	23584,51
406,11	23077,23
406,32	23112,25
406,53	23542,12
406,74	23477,40
406,94	23095,97
407,15	24020,73
407,36	23807,64
407,57	24091,59
407,78	24646,38
407,99	25361,43
408,20	25008,77
408,40	25938,04
408,61	26198,54
408,82	25867,18
409,03	25939,47
409,24	25011,54
409,45	24232,80
409,65	23683,53
409,86	23440,03
410,07	23264,92
410,28	23395,28
410,49	24224,19
410,70	24373,70
410,90	25462,29
411,11	26240,73
411,32	26047,60
411,53	25948,58
411,74	26517,61
411,95	26987,52
412,15	26674,69
412,36	26288,65
412,57	25842,70
412,78	26012,28
412,99	26089,69
413,20	25896,26
413,40	25810,14
413,61	26200,69
413,82	27196,00
414,03	25934,86
414,24	25873,53
414,44	25791,09
414,65	26058,05
414,86	26220,35
415,07	25944,90
415,28	26267,66
415,48	26146,62
415,69	26121,12
415,90	27032,06
416,11	26939,90
416,32	26389,51
416,53	26033,78
416,73	26085,39
416,94	25540,94
417,15	26091,02
417,36	25365,63
417,56	24720,01
417,77	24831,11
417,98	25283,10
418,19	24981,33
418,40	25157,35
418,60	25591,72
418,81	25213,36
419,02	24914,56
419,23	25591,11
419,44	24361,82
419,64	24367,76
419,85	24606,75
420,06	24386,39
420,27	25445,70
420,47	25806,25
420,68	25751,47
420,89	26333,50
421,10	26697,63
421,30	26308,41
421,51	26302,37
421,72	25676,20
421,93	25429,73
422,14	24012,13
422,34	24350,76
422,55	24244,06
422,76	24051,96
422,97	24798,14
423,17	24885,69
423,38	24928,59
423,59	24096,91
423,80	24586,07
424,00	24578,39
424,21	24463,40
424,42	24597,95
424,63	24797,83
424,83	24353,52
425,04	24717,45
425,25	23970,66
425,46	24761,07
425,66	24336,73
425,87	24453,36
426,08	23821,15
426,28	24881,18
426,49	23806,72
426,70	24066,30
426,91	23513,45
427,11	23693,56
427,32	23235,23
427,53	23425,08
427,74	23915,46
427,94	23864,16
428,15	23676,57
428,36	23449,34
428,56	23337,63
428,77	23078,36
428,98	22261,32
429,19	21295,60
429,39	20708,75
429,60	20265,06
429,81	19454,17
430,01	18223,24
430,22	17902,93
430,43	18075,78
430,64	18378,37
430,84	19384,84
431,05	21075,34
431,26	22722,52
431,46	23769,85
431,67	24425,61
431,88	25478,57
432,08	24909,24
432,29	25437,72
432,50	25487,69
432,70	25295,59
432,91	25501,92
433,12	25802,46
433,33	25044,61
433,53	24325,26
433,74	24425,30
433,95	24240,68
434,15	23734,22
434,36	24916,41
434,57	24952,04
434,77	25410,48
434,98	25960,77
435,19	26108,43
435,39	26746,88
435,60	27280,58
435,81	28230,53
436,01	27917,81
436,22	28295,15
436,43	28296,17
436,63	28352,90
436,84	28071,00
437,05	27600,17
437,25	26625,33
437,46	26405,28
437,67	26211,13
437,87	25409,87
438,08	24892,14
438,29	25330,10
438,49	24886,81
438,70	24973,14
438,91	25923,19
439,11	27279,56
439,32	27146,64
439,52	26625,33
439,73	26087,33
439,94	26553,25
440,14	26986,29
440,35	27326,46
440,56	26925,16
440,76	27272,29
440,97	28240,77
441,18	28575,31
441,38	28205,14
441,59	28886,91
441,79	29373,71
442,00	29436,58
442,21	29260,35
442,41	29334,39
442,62	28415,46
442,83	28724,30
443,03	28606,85
443,24	28587,39
443,44	29106,24
443,65	29229,33
443,86	28519,91
444,06	29248,27
444,27	29242,02
444,48	29534,78
444,68	28940,15
444,89	29332,44
445,09	29347,49
445,30	27804,96
445,51	28043,96
445,71	27654,54
445,92	27829,03
446,12	28162,54
446,33	28265,25
446,54	28756,45
446,74	29536,73
446,95	28687,43
447,15	29929,73
447,36	30298,47
447,57	29689,10
447,77	29702,92
447,98	29756,99
448,18	29337,87
448,39	28655,28
448,59	29800,40
448,80	29765,89
449,01	29543,28
449,21	29567,65
449,42	29801,43
449,62	30625,12
449,83	30589,89
450,04	30196,99
450,24	31490,28
450,45	31319,48
450,65	31333,31
450,86	30918,90
451,06	31403,76
451,27	31010,85
451,47	30089,68
451,68	30164,63
451,89	30021,38
452,09	29747,87
452,30	28519,60
452,50	28192,95
452,71	28740,48
452,91	27983,14
453,12	28337,23
453,33	28511,00
453,53	28423,14
453,74	29655,41
453,94	29064,57
454,15	28383,00
454,35	28342,66
454,56	28922,75
454,76	29446,21
454,97	28543,87
455,17	28922,34
455,38	29656,64
455,58	29574,82
455,79	29546,25
456,00	30001,31
456,20	29645,78
456,41	30028,85
456,61	29071,43
456,82	29136,55
457,02	30345,67
457,23	30001,10
457,43	30041,35
457,64	29208,95
457,84	28812,97
458,05	29083,41
458,25	28935,65
458,46	29207,41
458,66	28962,37
458,87	29465,97
459,07	29567,24
459,28	29074,81
459,48	28874,41
459,69	29328,35
459,89	29055,76
460,10	29703,53
460,30	30503,98
460,51	29930,55
460,71	30397,49
460,92	30691,37
461,12	30528,35
461,33	31497,96
461,53	30635,56
461,74	30531,94
461,94	30486,17
462,15	31420,65
462,35	31435,60
462,56	30949,21
462,76	31062,26
462,97	31451,17
463,17	31049,87
463,38	30983,41
463,58	30209,38
463,79	31387,89
463,99	30635,97
464,20	30695,88
464,40	30546,17
464,61	30362,67
464,81	30976,35
465,02	30758,85
465,22	31138,14
465,43	31713,41
465,63	31189,23
465,83	31042,80
466,04	31746,18
466,24	31040,24
466,45	31636,92
466,65	30553,65
466,86	31042,60
467,06	31247,50
467,27	31396,08
467,47	32369,37
467,68	31764,61
467,88	32016,51
468,08	32279,78
468,29	32277,01
468,49	32840,20
468,70	33003,84
468,90	33072,54
469,11	33316,36
469,31	33248,98
469,52	32887,31
469,72	34353,55
469,92	32820,03
470,13	33152,21
470,33	33121,59
470,54	32682,71
470,74	33620,58
470,95	34163,29
471,15	34866,05
471,35	35267,35
471,56	35708,69
471,76	36396,09
471,97	36693,35
472,17	36539,86
472,38	36758,07
472,58	36440,94
472,78	36730,73
472,99	36566,69
473,19	36733,60
473,40	37736,79
473,60	36783,77
473,80	38166,66
474,01	38604,01
474,21	38974,69
474,42	39064,08
474,62	39797,26
474,83	38913,45
475,03	39667,72
475,23	39467,33
475,44	39704,89
475,64	39913,99
475,85	39500,61
476,05	39127,16
476,25	40136,30
476,46	40339,35
476,66	40331,06
476,86	40854,21
477,07	41645,55
477,27	42899,93
477,48	42905,35
477,68	42942,22
477,88	43634,53
478,09	43239,58
478,29	43534,80
478,50	43609,34
478,70	43493,33
478,90	43716,56
479,11	44248,41
479,31	45027,36
479,51	45307,42
479,72	45010,46
479,92	45151,36
480,12	45184,33
480,33	45671,75
480,53	45627,00
480,74	46107,35
480,94	46720,82
481,14	47099,29
481,35	47482,16
481,55	47488,71
481,75	47609,74
481,96	47682,04
482,16	47462,60
482,36	47760,99
482,57	48015,86
482,77	47584,04
482,97	48006,85
483,18	48057,84
483,38	47860,31
483,58	48273,59
483,79	47990,87
483,99	47995,17
484,19	48238,16
484,40	48151,43
484,60	47597,05
484,80	47970,39
485,01	47201,28
485,21	45541,60
485,41	44183,39
485,62	43195,04
485,82	42047,97
486,02	41850,14
486,23	42244,07
486,43	43032,43
486,63	44327,16
486,84	45200,00
487,04	45872,55
487,24	47079,73
487,45	47313,10
487,65	48571,47
487,85	48387,97
488,06	48943,69
488,26	48539,62
488,46	48801,56
488,67	48866,89
488,87	49167,22
489,07	50033,41
489,27	50706,17
489,48	51637,28
489,68	51493,00
489,88	52374,65
490,09	52362,16
490,29	52122,34
490,49	52189,62
490,70	51891,74
490,90	51384,97
491,10	50843,49
491,30	50858,95
491,51	49841,93
491,71	49997,16
491,91	49438,48
492,12	49991,02
492,32	50340,71
492,52	51274,48
492,72	51296,70
492,93	51712,54
493,13	51392,04
493,33	51706,30
493,53	51447,33
493,74	51735,27
493,94	52709,08
494,14	52558,97
494,34	53182,88
494,55	53322,14
494,75	53202,13
494,95	53074,24
495,16	53040,04
495,36	52873,43
495,56	52495,17
495,76	52702,22
495,97	52848,04
496,17	53016,79
496,37	53045,36
496,57	53370,58
496,78	53614,39
496,98	53253,43
497,18	53244,32
497,38	52662,80
497,59	52443,36
497,79	51298,34
497,99	51295,47
498,19	50795,87
498,39	51306,33
498,60	51420,09
498,80	51872,08
499,00	51733,02
499,20	51993,32
499,41	51891,94
499,61	51406,78
499,81	50867,35
500,01	50622,00
500,22	50047,95
500,42	49480,46
500,62	49285,90
500,82	49177,98
501,02	48785,79
501,23	48532,46
501,43	48514,43
501,63	48668,24
501,83	49031,34
502,03	48749,44
502,24	49711,78
502,44	49662,83
502,64	50075,40
502,84	49904,08
503,05	49693,65
503,25	49535,24
503,45	49201,83
503,65	48866,07
503,85	48509,01
504,06	48404,15
504,26	48740,02
504,46	49698,47
504,66	49548,97
504,86	50186,60
505,06	50234,93
505,27	50404,81
505,47	51278,78
505,67	51168,19
505,87	51116,07
506,07	51212,33
506,28	50947,83
506,48	50485,19
506,68	50445,98
506,88	49862,10
507,08	49496,23
507,28	49403,25
507,49	49606,10
507,69	49142,14
507,89	48775,45
508,09	49713,52
508,29	49792,78
508,49	50124,44
508,70	50553,19
508,90	50692,55
509,10	50492,36
509,30	50024,30
509,50	49974,02
509,70	49595,04
509,91	49300,03
510,11	49744,85
510,31	49643,99
510,51	49610,81
510,71	50178,10
510,91	50117,89
511,11	50713,03
511,32	50723,17
511,52	50441,06
511,72	50816,76
511,92	50322,07
512,12	49983,54
512,32	49197,53
512,52	49307,41
512,73	49376,73
512,93	49106,40
513,13	48882,45
513,33	49105,17
513,53	48741,14
513,73	48686,77
513,93	48102,79
514,13	48062,14
514,34	48490,58
514,54	48328,27
514,74	48903,34
514,94	49164,15
515,14	49130,87
515,34	49265,32
515,54	49141,93
515,74	48701,62
515,94	47491,17
516,15	46669,62
516,35	45069,03
516,55	43889,20
516,75	43385,30
516,95	43235,69
517,15	43561,93
517,35	43902,20
517,55	44411,23
517,75	44960,59
517,95	44571,17
518,16	44538,30
518,36	44723,03
518,56	45148,29
518,76	45807,74
518,96	46470,36
519,16	47036,93
519,36	47658,38
519,56	47489,84
519,76	48214,61
519,96	48090,30
520,16	48578,64
520,37	48355,20
520,57	48582,32
520,77	48664,86
520,97	49149,20
521,17	49328,19
521,37	49797,49
521,57	49527,87
521,77	49571,08
521,97	49244,84
522,17	48821,53
522,37	48811,18
522,57	48288,54
522,77	48563,79
522,97	48854,09
523,17	49025,50
523,37	49328,30
523,58	49858,11
523,78	50623,84
523,98	50865,60
524,18	50242,82
524,38	50845,94
524,58	50708,73
524,78	50441,57
524,98	50814,41
525,18	50280,70
525,38	50025,53
525,58	49513,64
525,78	49115,00
525,98	48027,63
526,18	46879,23
526,38	45981,40
526,58	45669,09
526,78	45271,99
526,98	45791,35
527,18	46094,96
527,38	46930,54
527,58	47497,72
527,78	48229,77
527,98	48500,61
528,18	48941,54
528,38	49439,71
528,58	49991,63
528,78	50343,58
528,98	50201,65
529,18	50223,67
529,38	50121,99
529,58	49694,88
529,78	49758,06
529,98	49390,66
530,18	50207,80
530,38	50101,00
530,58	50508,44
530,78	50755,12
530,98	50445,77
531,18	50527,69
531,38	50265,96
531,58	50108,68
531,78	49313,35
531,98	48587,75
532,18	48190,75
532,38	47899,84
532,58	47454,71
532,78	47469,56
532,98	47929,33
533,18	47989,85
533,38	48180,31
533,58	48711,65
533,78	48450,03
533,98	48489,96
534,18	48406,10
534,38	48579,87
534,58	48913,99
534,78	48931,09
534,98	49574,26
535,18	49818,89
535,38	50021,84
535,58	49730,01
535,78	49666,31
535,98	49316,21
536,18	48841,60
536,38	47891,03
536,58	47941,82
536,78	47103,28
536,98	47209,88
537,18	47829,29
537,38	47623,47
537,58	47831,33
537,78	48348,75
537,98	48165,97
538,17	48161,57
538,37	47917,14
538,57	48167,30
538,77	47664,22
538,97	47409,86
539,17	47272,85
539,37	46898,28
539,57	46522,07
539,77	46254,09
539,97	45824,63
540,17	45497,06
540,37	45221,91
540,57	45159,76
540,77	45343,87
540,97	45509,35
541,16	45504,53
541,36	45948,74
541,56	45937,48
541,76	46125,07
541,96	46338,88
542,16	45656,60
542,36	45961,64
542,56	45617,58
542,76	45644,41
542,96	45591,78
543,16	45376,33
543,36	45576,52
543,55	45644,72
543,75	46062,50
543,95	46026,77
544,15	46005,98
544,35	45646,97
544,55	45896,72
544,75	45891,40
544,95	46184,05
545,15	45733,70
545,35	45887,30
545,54	45911,06
545,74	45799,54
545,94	45346,43
546,14	45793,20
546,34	45592,29
546,54	45253,15
546,74	45327,18
546,94	45069,03
547,14	44791,43
547,33	44617,76
547,53	44051,19
547,73	44388,08
547,93	44467,65
548,13	44391,67
548,33	44657,90
548,53	45092,18
548,72	44588,58
548,92	45063,40
549,12	45017,94
549,32	44712,69
549,52	44757,03
549,72	44600,46
549,92	44569,74
550,12	44084,37
550,31	44654,73
550,51	43770,52
550,71	44248,62
550,91	44118,26
551,11	43931,18
551,31	44329,92
551,50	44277,29
551,70	44305,55
551,90	44635,79
552,10	44378,66
552,30	43938,86
552,50	43587,74
552,70	43600,64
552,89	43426,36
553,09	43606,58
553,29	43525,68
553,49	43431,38
553,69	43836,87
553,88	43605,25
554,08	43612,42
554,28	43813,42
554,48	43812,61
554,68	43901,59
554,88	43951,46
555,07	43900,16
555,27	43689,01
555,47	43645,90
555,67	43456,46
555,87	43369,02
556,06	42726,77
556,26	42754,52
556,46	42593,76
556,66	42072,24
556,86	41911,99
557,06	41881,06
557,25	42121,29
557,45	41841,84
557,65	42206,79
557,85	42050,84
558,05	41674,22
558,24	41512,53
558,44	41067,51
558,64	40912,48
558,84	40597,60
559,03	40465,92
559,23	40567,39
559,43	40682,69
559,63	40852,06
559,83	40829,94
560,02	40846,74
560,22	41356,68
560,42	41705,14
560,62	41782,86
560,82	41308,45
561,01	41316,54
561,21	41181,48
561,41	41167,24
561,61	40680,85
561,80	40702,76
562,00	40550,81
562,20	40606,82
562,40	41137,04
562,59	41012,01
562,79	40879,61
562,99	40960,09
563,19	40889,23
563,38	40715,36
563,58	40717,82
563,78	40688,02
563,98	40595,55
564,17	40501,04
564,37	40721,91
564,57	40861,07
564,77	40627,50
564,96	40561,45
565,16	40036,97
565,36	40012,50
565,56	39700,08
565,75	39503,88
565,95	39429,03
566,15	39617,96
566,35	39762,54
566,54	39960,99
566,74	40221,29
566,94	40152,07
567,14	40181,97
567,33	40107,01
567,53	39984,75
567,73	39715,03
567,92	39385,31
568,12	39065,72
568,32	38760,98
568,52	38649,57
568,71	38316,98
568,91	38817,51
569,11	38965,27
569,30	38591,41
569,50	38622,13
569,70	38503,45
569,90	38144,34
570,09	38239,47
570,29	37859,36
570,49	37732,19
570,68	37273,65
570,88	37040,38
571,08	37424,17
571,27	37355,46
571,47	37829,26
571,67	38143,21
571,87	38511,75
572,06	38246,02
572,26	38614,25
572,46	38575,03
572,65	38684,80
572,85	38514,10
573,05	38834,61
573,24	38573,59
573,44	38380,06
573,64	38520,35
573,83	38447,85
574,03	38252,17
574,23	38491,78
574,42	38059,86
574,62	38145,88
574,82	37898,58
575,01	37397,85
575,21	37404,51
575,41	37558,52
575,60	37218,86
575,80	37316,65
576,00	37552,89
576,19	37518,07
576,39	37246,31
576,59	37741,30
576,78	37587,39
576,98	37576,44
577,18	37690,51
577,37	37499,02
577,57	37255,11
577,77	37084,21
577,96	36785,31
578,16	36802,20
578,35	36673,80
578,55	36332,40
578,75	36659,46
578,94	36274,54
579,14	36807,73
579,34	36828,93
579,53	36636,73
579,73	36749,26
579,93	36661,81
580,12	36972,80
580,32	36657,31
580,51	36847,16
580,71	36818,59
580,91	36619,22
581,10	36854,94
581,30	36947,40
581,50	36933,58
581,69	36973,93
581,89	37018,78
582,08	37230,74
582,28	36994,41
582,48	37378,91
582,67	37038,13
582,87	37162,03
583,06	37176,47
583,26	37274,77
583,46	37196,33
583,65	36864,77
583,85	37177,70
584,04	36991,95
584,24	36653,32
584,44	36638,26
584,63	36464,39
584,83	36230,31
585,02	35858,91
585,22	35806,79
585,42	35557,76
585,61	35169,46
585,81	35114,78
586,00	35265,61
586,20	35377,02
586,39	35259,16
586,59	35318,65
586,79	35628,92
586,98	35007,57
587,18	35183,18
587,37	35026,10
587,57	34475,10
587,76	34067,65
587,96	33525,04
588,16	32744,67
588,35	31933,36
588,55	31003,79
588,74	30488,21
588,94	29798,66
589,13	29504,88
589,33	29321,28
589,52	29352,82
589,72	29729,13
589,92	30244,81
590,11	30669,15
590,31	30970,82
590,50	31441,54
590,70	31508,82
590,89	31598,11
591,09	31617,87
591,28	31437,14
591,48	31452,19
591,67	31265,93
591,87	31470,11
592,06	31397,20
592,26	31423,32
592,46	31524,38
592,65	31755,39
592,85	31599,75
593,04	31983,44
593,24	31724,06
593,43	31632,82
593,63	31756,62
593,82	31482,81
594,02	30851,22
594,21	30965,70
594,41	30551,80
594,60	30491,90
594,80	30558,56
594,99	30500,30
595,19	30586,82
595,38	31104,34
595,58	30928,01
595,77	31006,14
595,97	31141,72
596,16	31450,96
596,36	31258,25
596,55	31347,03
596,75	31378,67
596,94	31221,49
597,14	31319,69
597,33	31121,85
597,53	31227,53
597,72	31077,41
597,92	31006,04
598,11	30889,21
598,31	30916,75
598,50	30725,06
598,70	30717,89
598,89	30672,43
599,09	30376,60
599,28	30756,70
599,48	30612,42
599,67	30504,70
599,87	30288,23
600,06	30393,19
600,26	30200,99
600,45	30103,30
600,64	30172,52
600,84	29912,02
601,03	30083,23
601,23	30016,57
601,42	29894,61
601,62	29667,49
601,81	29703,23
602,01	29682,95
602,20	29678,34
602,40	29675,48
602,59	29719,30
602,78	30083,33
602,98	29933,83
603,17	30263,96
603,37	30032,64
603,56	30120,09
603,76	30157,57
603,95	30066,02
604,15	29756,17
604,34	29853,14
604,53	29648,96
604,73	29873,72
604,92	29743,16
605,12	29746,34
605,31	29657,15
605,51	29716,95
605,70	29412,72
605,89	29522,08
606,09	29371,46
606,28	29456,45
606,48	29424,70
606,67	29346,06
606,87	29495,56
607,06	29260,05
607,25	29088,22
607,45	29214,48
607,64	28889,36
607,84	28927,56
608,03	28618,01
608,22	28739,15
608,42	28687,64
608,61	28545,82
608,81	28413,01
609,00	28333,55
609,19	28182,51
609,39	28068,33
609,58	27984,78
609,78	28038,33
609,97	27729,70
610,16	27724,99
610,36	27688,95
610,55	27655,87
610,75	27699,80
610,94	27708,51
611,13	27695,81
611,33	27727,24
611,52	27637,85
611,71	27338,44
611,91	27429,37
612,10	27378,07
612,30	27133,44
612,49	27243,41
612,68	27226,72
612,88	26897,10
613,07	26740,33
613,26	26844,77
613,46	26599,53
613,65	26470,41
613,84	26542,70
614,04	26585,81
614,23	26476,34
614,43	26916,25
614,62	26774,84
614,81	26812,83
615,01	26823,37
615,20	26631,89
615,39	26512,29
615,59	26235,40
615,78	26015,24
615,97	25737,64
616,17	25841,27
616,36	25822,33
616,55	25931,69
616,75	26135,77
616,94	26093,48
617,13	26241,24
617,33	26391,87
617,52	26619,60
617,71	26508,40
617,91	26869,86
618,10	26730,09
618,29	26720,67
618,49	26775,86
618,68	26748,62
618,87	26588,78
619,07	26779,14
619,26	26864,54
619,45	27000,42
619,65	26859,31
619,84	26946,66
620,03	27023,46
620,22	27185,25
620,42	26877,75
620,61	27036,77
620,80	27175,62
621,00	26917,07
621,19	26805,76
621,38	26857,57
621,58	26699,37
621,77	26604,96
621,96	26685,95
622,15	26648,89
622,35	26417,57
622,54	26408,35
622,73	26635,06
622,93	26445,52
623,12	26419,21
623,31	26391,05
623,50	26390,13
623,70	26427,30
623,89	26194,85
624,08	26093,58
624,28	26298,79
624,47	26193,32
624,66	26080,57
624,85	26250,04
625,05	26099,01
625,24	25944,59
625,43	26326,43
625,62	26088,05
625,82	26037,36
626,01	26123,89
626,20	26390,33
626,39	26323,67
626,59	26405,59
626,78	26348,96
626,97	26091,84
627,17	25991,39
627,36	25815,87
627,55	25439,87
627,74	25436,80
627,93	25328,36
628,13	25259,54
628,32	25346,28
628,51	25316,78
628,70	25475,91
628,90	25416,32
629,09	25356,31
629,28	25252,27
629,47	25236,81
629,67	25139,53
629,86	25320,78
630,05	25246,44
630,24	25336,45
630,44	25368,29
630,63	25494,45
630,82	25390,20
631,01	25433,01
631,20	25034,78
631,40	25188,48
631,59	25040,41
631,78	24866,95
631,97	24940,06
632,16	25093,15
632,36	25320,16
632,55	25288,52
632,74	25433,31
632,93	25295,90
633,13	25233,13
633,32	25268,15
633,51	25176,50
633,70	25145,88
633,89	25136,26
634,09	25115,88
634,28	25203,33
634,47	25345,97
634,66	25120,08
634,85	25173,94
635,04	25204,15
635,24	25015,22
635,43	24967,50
635,62	24821,18
635,81	24699,73
636,00	24692,46
636,20	24815,44
636,39	24812,88
636,58	24749,80
636,77	24792,50
636,96	24782,37
637,15	24860,40
637,35	24805,82
637,54	24708,64
637,73	24757,08
637,92	24654,27
638,11	24713,04
638,30	24692,56
638,50	24678,13
638,69	24756,15
638,88	24411,89
639,07	24365,91
639,26	24422,95
639,45	24000,04
639,64	24024,31
639,84	24043,97
640,03	23706,16
640,22	23829,04
640,41	23876,65
640,60	23572,73
640,79	23621,07
640,98	23568,23
641,18	23424,77
641,37	23550,92
641,56	23304,96
641,75	23329,23
641,94	23188,13
642,13	23321,55
642,32	23180,45
642,52	23343,36
642,71	23351,76
642,90	23237,07
643,09	23175,22
643,28	23192,53
643,47	22999,71
643,66	23173,48
643,85	22883,18
644,04	23038,93
644,24	22956,19
644,43	23066,17
644,62	22847,34
644,81	22680,33
645,00	22453,42
645,19	22550,39
645,38	22194,55
645,57	22225,48
645,76	21945,32
645,96	21718,30
646,15	21707,85
646,34	21589,69
646,53	21349,15
646,72	21450,12
646,91	21210,40
647,10	20964,03
647,29	20973,04
647,48	20988,71
647,67	20691,24
647,86	20786,06
648,05	20812,07
648,25	20603,59
648,44	20550,44
648,63	20528,43
648,82	20283,18
649,01	20267,11
649,20	20134,91
649,39	20012,34
649,58	20050,64
649,77	20264,04
649,96	20414,77
650,15	20706,19
650,34	20769,27
650,53	20897,06
650,72	20770,60
650,91	20609,43
651,11	20518,80
651,30	20239,56
651,49	20207,72
651,68	20081,05
651,87	20047,98
652,06	20130,61
652,25	20186,01
652,44	20304,69
652,63	20290,86
652,82	20320,36
653,01	20340,22
653,20	20046,34
653,39	20175,77
653,58	20114,74
653,77	20036,61
653,96	19984,90
654,15	19797,41
654,34	19681,49
654,53	19487,55
654,72	19313,68
654,91	19097,00
655,10	18664,16
655,29	18283,04
655,48	17862,49
655,67	17350,08
655,86	17016,78
656,05	16564,28
656,24	16433,93
656,43	16461,57
656,62	16863,59
656,81	17183,79
657,00	17526,11
657,19	17784,97
657,38	18113,77
657,57	18347,55
657,76	18421,68
657,95	18686,59
658,14	18790,42
658,33	18771,48
658,52	18787,04
658,71	18718,43
658,90	18767,07
659,09	18780,18
659,28	18717,92
659,47	18840,80
659,66	18836,70
659,85	18776,90
660,04	18877,46
660,23	18894,97
660,42	18791,24
660,61	18949,14
660,80	18786,94
660,99	18841,82
661,18	18948,93
661,37	18948,63
661,56	18915,35
661,75	18970,64
661,94	19012,73
662,13	18974,53
662,32	18840,70
662,51	18752,43
662,70	18694,68
662,89	18692,83
663,08	18455,99
663,27	18436,12
663,46	18294,71
663,65	18354,41
663,83	18172,65
664,02	18285,08
664,21	18200,20
664,40	18312,83
664,59	18319,69
664,78	18321,64
664,97	18413,08
665,16	18158,42
665,35	18280,17
665,54	18117,15
665,73	18288,67
665,92	18146,23
666,11	18040,56
666,30	18053,87
666,49	17932,94
666,67	17907,13
666,86	17830,54
667,05	17848,66
667,24	17873,44
667,43	17760,09
667,62	17713,19
667,81	17596,76
668,00	17768,89
668,19	17514,54
668,38	17592,77
668,57	17649,80
668,76	17481,97
668,94	17501,12
669,13	17303,39
669,32	17401,80
669,51	17285,27
669,70	17262,64
669,89	17346,09
670,08	17145,08
670,27	17148,46
670,46	17132,49
670,64	17064,70
670,83	16935,58
671,02	16915,20
671,21	16817,51
671,40	16764,47
671,59	16728,42
671,78	16653,47
671,97	16703,95
672,16	16668,21
672,34	16664,32
672,53	16693,71
672,72	16543,39
672,91	16608,21
673,10	16589,67
673,29	16676,40
673,48	16634,22
673,66	16454,61
673,85	16540,83
674,04	16305,31
674,23	16378,94
674,42	16373,41
674,61	16414,88
674,80	16235,58
674,98	16207,93
675,17	16229,64
675,36	16167,07
675,55	16238,14
675,74	16332,04
675,93	16167,28
676,12	16198,92
676,30	16230,15
676,49	16209,37
676,68	16041,84
676,87	15984,50
677,06	15952,14
677,25	15960,64
677,43	15987,67
677,62	15947,94
677,81	15804,28
678,00	15857,63
678,19	15875,96
678,37	15780,42
678,56	15741,00
678,75	15886,71
678,94	15620,47
679,13	15629,18
679,32	15665,02
679,50	15474,66
679,69	15552,68
679,88	15463,60
680,07	15481,01
680,26	15400,01
680,44	15336,01
680,63	15439,43
680,82	15291,16
681,01	15480,80
681,20	15482,95
681,38	15421,72
681,57	15371,54
681,76	15312,87
681,95	15259,21
682,14	15310,72
682,32	15187,94
682,51	15200,64
682,70	15157,32
682,89	15034,75
683,07	15107,76
683,26	14993,59
683,45	14947,82
683,64	14793,20
683,83	14744,04
684,01	14724,08
684,20	14663,05
684,39	14651,99
684,58	14710,56
684,76	14620,96
684,95	14610,31
685,14	14647,89
685,33	14418,21
685,52	14467,77
685,70	14207,89
685,89	13941,55
686,08	13717,09
686,27	13227,22
686,45	12643,03
686,64	12010,11
686,83	11515,22
687,02	11161,63
687,20	11091,49
687,39	11049,10
687,58	11212,22
687,76	11558,02
687,95	11692,47
688,14	11909,04
688,33	11924,20
688,51	12044,82
688,70	11889,69
688,89	11925,42
689,08	11940,07
689,26	11931,26
689,45	11991,27
689,64	12081,89
689,83	12154,49
690,01	12244,81
690,20	12305,94
690,39	12408,54
690,57	12420,42
690,76	12536,74
690,95	12545,86
691,14	12655,63
691,32	12660,95
691,51	12612,62
691,70	12605,66
691,88	12633,30
692,07	12634,33
692,26	12425,64
692,44	12433,32
692,63	12406,59
692,82	12219,31
693,01	12147,73
693,19	12108,72
693,38	11998,23
693,57	11929,73
693,75	11870,54
693,94	11703,83
694,13	11804,39
694,31	11808,90
694,50	11852,21
694,69	11758,31
694,87	11893,58
695,06	11958,40
695,25	11973,24
695,43	12025,77
695,62	12053,01
695,81	12165,24
695,99	12265,69
696,18	12536,03
696,37	12618,87
696,55	12795,91
696,74	12666,79
696,93	12804,21
697,11	12805,85
697,30	12700,68
697,49	12763,35
697,67	12569,00
697,86	12537,97
698,05	12421,75
698,23	12408,23
698,42	12344,75
698,61	12249,62
698,79	12100,83
698,98	12009,90
699,17	11978,77
699,35	11901,57
699,54	11878,01
699,72	11781,66
699,91	11736,91
700,10	11648,33
700,28	11648,54
700,47	11518,80
700,66	11532,93
700,84	11572,97
701,03	11555,46
701,21	11555,05
701,40	11516,85
701,59	11507,33
701,77	11435,04
701,96	11434,42
702,15	11454,19
702,33	11610,24
702,52	11482,96
702,70	11620,48
702,89	11644,34
703,08	11748,48
703,26	11830,71
703,45	11859,07
703,63	11947,95
703,82	11976,83
704,01	11919,38
704,19	11882,01
704,38	11893,99
704,56	11987,27
704,75	11896,65
704,94	11843,81
705,12	11770,91
705,31	11742,75
705,49	11726,98
705,68	11631,75
705,86	11735,78
706,05	11635,64
706,24	11747,35
706,42	11690,22
706,61	11704,04
706,79	11786,26
706,98	11724,42
707,17	11772,13
707,35	11823,33
707,54	11709,67
707,72	11845,35
707,91	11541,23
708,09	11752,17
708,28	11675,27
708,46	11725,44
708,65	11670,66
708,84	11678,34
709,02	11669,02
709,21	11713,66
709,39	11679,36
709,58	11665,74
709,76	11746,02
709,95	11685,50
710,13	11651,30
710,32	11628,06
710,50	11687,14
710,69	11548,19
710,88	11617,31
711,06	11486,24
711,25	11635,12
711,43	11529,14
711,62	11508,15
711,80	11457,26
711,99	11405,65
712,17	11450,81
712,36	11349,43
712,54	11387,42
712,73	11384,35
712,91	11331,82
713,10	11273,86
713,28	11365,41
713,47	11354,14
713,65	11291,17
713,84	11234,03
714,02	11185,19
714,21	11107,77
714,39	11083,09
714,58	10995,34
714,76	10875,64
714,95	10856,49
715,13	10822,70
715,32	10723,78
715,50	10614,31
715,69	10578,17
715,87	10250,49
716,06	10043,55
716,24	9764,20
716,43	9297,37
716,61	8998,77
716,80	8673,45
716,98	8397,80
717,17	8112,52
717,35	7894,20
717,54	7756,17
717,72	7618,85
717,91	7553,42
718,09	7429,93
718,28	7285,96
718,46	7164,31
718,65	7120,99
718,83	7094,78
719,01	6982,96
719,20	6818,40
719,38	6860,39
719,57	6809,09
719,75	6779,49
719,94	6887,73
720,12	6923,16
720,31	7128,16
720,49	7260,97
720,68	7564,17
720,86	7818,12
721,04	8189,42
721,23	8398,41
721,41	8536,55
721,60	8721,68
721,78	8759,06
721,97	8840,06
722,15	8733,26
722,34	8701,41
722,52	8512,28
722,70	8430,46
722,89	8167,09
723,07	7921,44
723,26	7804,81
723,44	7581,89
723,63	7446,31
723,81	7359,99
723,99	7362,45
724,18	7277,15
724,36	7245,00
724,55	7203,01
724,73	7206,90
724,91	7165,74
725,10	7126,21
725,28	7130,62
725,47	7139,73
725,65	7118,43
725,83	7200,15
726,02	7232,40
726,20	7202,91
726,39	7200,86
726,57	7274,18
726,75	7242,85
726,94	7222,78
727,12	7201,17
727,31	7125,91
727,49	7128,36
727,67	7076,76
727,86	7130,72
728,04	7173,42
728,23	7250,53
728,41	7218,48
728,59	7257,39
728,78	7207,21
728,96	7142,60
729,14	7005,49
729,33	7090,99
729,51	7085,77
729,69	7188,98
729,88	7203,12
730,06	7218,68
730,25	7266,30
730,43	7153,35
730,61	7179,46
730,80	7216,12
730,98	7195,85
731,16	7318,83
731,35	7403,82
731,53	7438,84
731,71	7561,51
731,90	7704,97
732,08	7894,00
732,26	7956,97
732,45	8062,03
732,63	8164,53
732,81	8130,85
733,00	8268,26
733,18	8303,28
733,36	8392,37
733,55	8456,37
733,73	8517,71
733,91	8601,78
734,10	8551,09
734,28	8574,85
734,46	8599,83
734,65	8439,17
734,83	8454,94
735,01	8437,73
735,20	8445,11
735,38	8418,48
735,56	8404,15
735,75	8359,19
735,93	8305,13
736,11	8341,27
736,30	8279,12
736,48	8257,51
736,66	8318,23
736,84	8399,23
737,03	8364,52
737,21	8471,73
737,39	8513,92
737,58	8458,11
737,76	8445,21
737,94	8407,83
738,12	8414,08
738,31	8408,04
738,49	8332,16
738,67	8331,96
738,86	8321,51
739,04	8295,81
739,22	8412,34
739,40	8381,11
739,59	8431,49
739,77	8410,39
739,95	8504,40
740,14	8447,46
740,32	8500,30
740,50	8435,99
740,68	8503,06
740,87	8407,83
741,05	8420,43
741,23	8367,59
741,41	8384,18
741,60	8381,72
741,78	8437,02
741,96	8379,26
742,14	8441,11
742,33	8509,41
742,51	8513,92
742,69	8519,75
742,87	8579,15
743,06	8569,21
743,24	8645,09
743,42	8598,81
743,60	8589,49
743,79	8540,75
743,97	8554,37
744,15	8499,79
744,33	8469,37
744,52	8467,02
744,70	8465,79
744,88	8441,83
745,06	8512,48
745,24	8466,51
745,43	8509,62
745,61	8482,07
745,79	8430,98
745,97	8453,20
746,16	8407,83
746,34	8449,41
746,52	8462,31
746,70	8406,91
746,88	8376,19
747,07	8418,69
747,25	8288,85
747,43	8315,98
747,61	8345,58
747,79	8284,65
747,98	8211,43
748,16	8204,98
748,34	8228,94
748,52	8200,58
748,70	8213,99
748,89	8162,08
749,07	8081,08
749,25	8193,92
749,43	8105,96
749,61	8135,15
749,79	8184,30
749,98	8088,96
750,16	8138,12
750,34	8045,75
750,52	8087,94
750,70	8025,17
750,88	8029,37
751,07	8071,45
751,25	8052,92
751,43	8025,38
751,61	8070,74
751,79	8085,18
751,97	8108,52
752,16	8051,90
752,34	8071,25
752,52	8011,24
752,70	8084,36
752,88	8130,64
753,06	8058,35
753,25	8044,73
753,43	8099,51
753,61	8126,44
753,79	8152,25
753,97	8126,54
754,15	8191,88
754,33	8092,55
754,52	8194,23
754,70	8202,63
754,88	8200,68
755,06	8113,54
755,24	8198,12
755,42	8134,84
755,60	8226,59
755,78	8141,90
755,97	8220,96
756,15	8213,69
756,33	8174,47
756,51	8203,75
756,69	8244,41
756,87	8230,58
757,05	8254,54
757,23	8179,89
757,41	8204,78
757,60	8236,42
757,78	8169,96
757,96	8177,74
758,14	8103,61
758,32	8019,44
758,50	7803,89
758,68	7493,72
758,86	7135,33
759,04	6527,39
759,22	5904,60
759,41	5235,43
759,59	4545,16
759,77	3848,34
759,95	3295,39
760,13	2868,79
760,31	2565,90
760,49	2439,23
760,67	2410,36
760,85	2541,94
761,03	2755,44
761,21	2995,97
761,39	3286,89
761,57	3552,61
761,76	3685,63
761,94	3756,59
762,12	3760,58
762,30	3698,94
762,48	3561,72
762,66	3502,85
762,84	3407,41
763,02	3393,89
763,20	3433,62
763,38	3466,80
763,56	3534,69
763,74	3674,98
763,92	3834,21
764,10	3942,44
764,28	4157,68
764,46	4302,88
764,64	4432,11
764,82	4642,85
765,00	4839,55
765,19	4995,00
765,37	5178,60
765,55	5347,04
765,73	5543,13
765,91	5663,86
766,09	5820,33
766,27	6013,55
766,45	6169,10
766,63	6368,36
766,81	6534,25
766,99	6709,25
767,17	6757,27
767,35	6952,34
767,53	7052,79
767,71	7159,08
767,89	7255,95
768,07	7335,00
768,25	7371,87
768,43	7404,12
768,61	7510,52
768,79	7467,61
768,97	7580,04
769,15	7569,91
769,33	7616,60
769,51	7602,37
769,69	7682,03
769,87	7689,10
770,05	7703,64
770,23	7737,94
770,41	7785,35
770,59	7764,05
770,77	7782,18
770,95	7780,75
771,13	7734,56
771,31	7736,82
771,49	7785,25
771,67	7675,48
771,85	7720,74
772,03	7700,06
772,21	7697,50
772,38	7691,86
772,56	7599,91
772,74	7639,44
772,92	7593,66
773,10	7590,80
773,28	7645,58
773,46	7560,28
773,64	7614,04
773,82	7520,86
774,00	7503,76
774,18	7419,07
774,36	7415,90
774,54	7370,43
774,72	7404,94
774,90	7358,97
775,08	7394,91
775,26	7369,62
775,44	7384,87
775,62	7329,68
775,80	7379,04
775,97	7232,50
776,15	7358,56
776,33	7298,35
776,51	7245,30
776,69	7201,99
776,87	7195,23
777,05	7145,26
777,23	7123,96
777,41	7080,03
777,59	7022,08
777,77	6958,79
777,95	7012,65
778,13	6974,87
778,30	6978,66
778,48	6942,41
778,66	6999,34
778,84	6948,76
779,02	6947,02
779,20	6964,32
779,38	6947,73
779,56	6879,23
779,74	6912,00
779,92	6867,45
780,09	6857,62
780,27	6882,51
780,45	6832,64
780,63	6748,47
780,81	6769,36
780,99	6735,15
781,17	6768,33
781,35	6778,98
781,52	6792,40
781,70	6700,85
781,88	6727,47
782,06	6636,44
782,24	6660,20
782,42	6631,02
782,60	6592,62
782,78	6557,49
782,95	6532,92
783,13	6488,58
783,31	6488,17
783,49	6485,61
783,67	6477,11
783,85	6419,36
784,03	6402,05
784,20	6390,99
784,38	6394,99
784,56	6315,01
784,74	6378,81
784,92	6341,23
785,10	6340,31
785,28	6299,24
785,45	6265,97
785,63	6190,50
785,81	6226,44
785,99	6180,67
786,17	6142,68
786,35	6085,85
786,52	6028,20
786,70	6025,53
786,88	6000,65
787,06	5949,25
787,24	5939,31
787,41	5854,12
787,59	5925,39
787,77	5868,56
787,95	5768,00
788,13	5777,93
788,31	5699,70
788,48	5695,91
788,66	5660,79
788,84	5625,77
789,02	5593,72
789,20	5516,92
789,37	5510,26
789,55	5498,28
789,73	5497,16
789,91	5447,49
790,09	5479,24
790,26	5465,11
790,44	5472,27
790,62	5395,17
790,80	5410,32
790,98	5389,84
791,15	5426,61
791,33	5401,11
791,51	5370,70
791,69	5269,42
791,86	5319,60
792,04	5290,62
792,22	5276,69
792,40	5234,51
792,58	5249,15
792,75	5211,57
792,93	5210,13
793,11	5223,55
793,29	5233,69
793,46	5231,95
793,64	5247,61
793,82	5235,22
794,00	5244,95
794,17	5225,29
794,35	5191,91
794,53	5154,02
794,71	5200,82
794,88	5187,91
795,06	5126,37
795,24	5087,77
795,42	5059,71
795,59	4957,11
795,77	4949,94
795,95	4906,01
796,13	4889,93
796,30	4872,94
796,48	4865,97
796,66	4883,59
796,83	4902,12
797,01	4891,47
797,19	4948,10
797,37	4949,63
797,54	4953,93
797,72	4904,78
797,90	4883,07
798,08	4844,57
798,25	4878,57
798,43	4853,17
798,61	4813,44
798,78	4859,83
798,96	4797,26
799,14	4756,41
799,31	4767,47
799,49	4682,68
799,67	4677,05
799,85	4649,91
800,02	4646,43
800,20	4607,21
800,38	4554,99
800,55	4534,10
800,73	4583,35
800,91	4574,75
801,08	4515,16
801,26	4528,67
801,44	4498,67
801,61	4517,20
801,79	4515,46
801,97	4453,21
802,15	4482,39
802,32	4442,76
802,50	4420,54
802,68	4399,04
802,85	4420,85
803,03	4388,18
803,21	4403,54
803,38	4381,32
803,56	4384,60
803,74	4399,45
803,91	4325,31
804,09	4312,00
804,26	4330,12
804,44	4304,83
804,62	4363,20
804,79	4352,24
804,97	4365,86
805,15	4340,06
805,32	4421,67
805,50	4374,15
805,68	4399,04
805,85	4425,46
806,03	4416,44
806,21	4368,11
806,38	4355,42
806,56	4356,44
806,73	4352,14
806,91	4332,79
807,09	4322,95
807,26	4267,15
807,44	4294,90
807,62	4280,77
807,79	4201,10
807,97	4204,79
808,14	4218,61
808,32	4162,09
808,50	4125,84
808,67	4144,68
808,85	4070,85
809,02	4067,88
809,20	4034,19
809,38	3990,57
809,55	3941,42
809,73	3926,67
809,90	3901,59
810,08	3908,75
810,26	3859,29
810,43	3833,29
810,61	3798,67
810,78	3807,79
810,96	3734,78
811,14	3687,88
811,31	3707,44
811,49	3672,42
811,66	3598,38
811,84	3596,85
812,02	3527,52
812,19	3496,50
812,37	3441,10
812,54	3382,12
812,72	3318,22
812,89	3237,63
813,07	3219,00
813,25	3186,84
813,42	3121,00
813,60	2993,93
813,77	2997,71
813,95	2922,14
814,12	2897,88
814,30	2832,03
814,47	2797,42
814,65	2768,96
814,83	2756,26
815,00	2657,03
815,18	2644,23
815,35	2572,66
815,53	2572,45
815,70	2524,33
815,88	2469,44
816,05	2481,83
816,23	2409,03
816,40	2461,15
816,58	2416,60
816,75	2417,22
816,93	2435,75
817,10	2418,24
817,28	2376,05
817,46	2397,35
817,63	2403,19
817,81	2419,16
817,98	2396,43
818,16	2381,17
818,33	2412,40
818,51	2387,32
818,68	2407,39
818,86	2379,94
819,03	2417,63
819,21	2397,35
819,38	2441,18
819,56	2460,84
819,73	2520,84
819,91	2589,25
820,08	2608,80
820,26	2686,63
820,43	2703,22
820,61	2732,91
820,78	2748,07
820,96	2746,12
821,13	2736,80
821,31	2780,83
821,48	2679,66
821,66	2642,39
821,83	2499,65
822,00	2420,29
822,18	2278,88
822,35	2223,68
822,53	2156,51
822,70	2130,91
822,88	2047,35
823,05	2100,40
823,23	2143,40
823,40	2192,35
823,58	2244,27
823,75	2285,53
823,93	2369,91
824,10	2419,47
824,28	2479,58
824,45	2525,86
824,62	2528,01
824,80	2587,10
824,97	2576,34
825,15	2559,04
825,32	2562,83
825,50	2560,88
825,67	2586,58
825,85	2585,66
826,02	2607,37
826,19	2604,30
826,37	2575,22
826,54	2581,98
826,72	2523,61
826,89	2504,97
827,07	2491,76
827,24	2455,82
827,41	2412,92
827,59	2409,74
827,76	2391,00
827,94	2357,31
828,11	2336,43
828,28	2315,43
828,46	2336,83
828,63	2286,97
828,81	2342,88
828,98	2297,41
829,15	2333,15
829,33	2325,67
829,50	2303,66
829,68	2275,29
829,85	2321,68
830,02	2305,50
830,20	2336,73
830,37	2311,54
830,55	2293,11
830,72	2305,91
830,89	2257,99
831,07	2293,93
831,24	2271,30
831,42	2261,98
831,59	2258,09
831,76	2274,37
831,94	2287,48
832,11	2270,89
832,28	2272,12
832,46	2248,87
832,63	2240,38
832,81	2257,27
832,98	2263,11
833,15	2249,49
833,33	2260,96
833,50	2238,23
833,67	2280,72
833,85	2297,92
834,02	2276,52
834,19	2289,83
834,37	2348,00
834,54	2355,57
834,71	2366,63
834,89	2392,33
835,06	2343,80
835,23	2338,27
835,41	2369,30
835,58	2326,90
835,75	2361,41
835,93	2301,00
836,10	2401,86
836,27	2354,86
836,45	2378,10
836,62	2371,04
836,79	2383,73
836,97	2345,44
837,14	2367,66
837,31	2399,71
837,49	2361,62
837,66	2360,90
837,83	2379,43
838,01	2355,98
838,18	2384,35
838,35	2356,39
838,53	2361,31
838,70	2345,44
838,87	2381,99
839,04	2380,97
839,22	2389,37
839,39	2391,21
839,56	2363,87
839,74	2351,17
839,91	2384,25
840,08	2346,26
840,26	2336,12
840,43	2321,99
840,60	2352,81
840,77	2306,01
840,95	2337,76
841,12	2318,61
841,29	2325,57
841,46	2291,27
841,64	2314,41
841,81	2294,65
841,98	2300,69
842,16	2302,22
842,33	2290,45
842,50	2304,37
842,67	2272,73
842,85	2250,62
843,02	2279,90
843,19	2277,34
843,36	2267,20
843,54	2249,90
843,71	2260,04
843,88	2243,96
844,05	2247,13
844,23	2222,87
844,40	2268,33
844,57	2234,13
844,74	2255,02
844,92	2263,42
845,09	2244,57
845,26	2227,68
845,43	2223,48
845,61	2237,20
845,78	2241,71
845,95	2251,54
846,12	2266,79
846,29	2235,26
846,47	2285,43
846,64	2220,20
846,81	2195,83
846,98	2192,04
847,16	2178,22
847,33	2182,42
847,50	2202,39
847,67	2187,44
847,84	2169,11
848,02	2154,77
848,19	2177,30
848,36	2121,29
848,53	2141,25
848,70	2127,84
848,88	2127,02
849,05	2055,96
849,22	2041,93
849,39	2050,63
849,56	2013,97
849,74	2001,68
849,91	2011,72
850,08	1989,19
850,25	1992,67
850,42	1990,42
850,60	1969,33
850,77	1967,28
850,94	1947,21
851,11	1984,48
851,28	1978,13
851,45	1958,06
851,63	1960,73
851,80	1984,07
851,97	1975,06
852,14	1942,70
852,31	1953,45
852,48	1945,88
852,66	1935,33
852,83	1922,22
853,00	1911,78
853,17	1876,25
853,34	1855,77
853,51	1791,46
853,68	1796,58
853,86	1726,64
854,03	1689,57
854,20	1688,14
854,37	1684,66
854,54	1682,10
854,71	1692,85
854,88	1698,28
855,06	1723,16
855,23	1728,28
855,40	1745,89
855,57	1742,31
855,74	1774,05
855,91	1769,04
856,08	1799,75
856,25	1794,02
856,43	1796,89
856,60	1787,36
856,77	1813,48
856,94	1792,38
857,11	1829,96
857,28	1793,92
857,45	1817,47
857,62	1819,01
857,79	1788,70
857,97	1774,56
858,14	1792,69
858,31	1772,62
858,48	1783,68
858,65	1758,28
858,82	1745,38
858,99	1751,73
859,16	1762,79
859,33	1747,63
859,50	1771,29
859,67	1720,91
859,85	1718,96
860,02	1687,73
860,19	1708,62
860,36	1692,54
860,53	1712,20
860,70	1705,04
860,87	1713,95
861,04	1698,89
861,21	1660,19
861,38	1676,36
861,55	1684,45
861,72	1695,62
861,89	1678,62
862,06	1653,53
862,23	1683,64
862,41	1654,96
862,58	1659,26
862,75	1638,48
862,92	1643,49
863,09	1642,47
863,26	1601,92
863,43	1609,19
863,60	1616,15
863,77	1594,96
863,94	1639,40
864,11	1613,90
864,28	1607,96
864,45	1571,20
864,62	1574,58
864,79	1617,90
864,96	1572,23
865,13	1546,42
865,30	1578,37
865,47	1547,04
865,64	1497,99
865,81	1448,94
865,98	1431,73
866,15	1383,71
866,32	1399,17
866,49	1381,05
866,66	1378,28
866,83	1343,06
867,00	1357,91
867,17	1400,81
867,34	1363,23
867,51	1393,44
867,68	1395,69
867,85	1421,39
868,02	1402,04
868,19	1379,51
868,36	1427,95
868,53	1388,42
868,70	1402,24
868,87	1404,80
869,04	1405,11
869,21	1379,72
869,38	1388,42
869,55	1385,14
869,72	1411,77
869,89	1374,08
870,06	1380,33
870,23	1382,28
870,40	1401,32
870,57	1384,32
870,74	1366,10
870,91	1358,72
871,08	1333,84
871,25	1334,97
871,42	1341,62
871,59	1295,75
871,76	1316,23
871,93	1312,54
872,10	1307,42
872,27	1346,13
872,44	1305,48
872,60	1288,58
872,77	1283,67
872,94	1291,96
873,11	1276,70
873,28	1276,09
873,45	1249,57
873,62	1254,18
873,79	1237,79
873,96	1236,46
874,13	1226,02
874,30	1242,40
874,47	1240,15
874,64	1206,66
874,81	1246,39
874,97	1221,51
875,14	1215,16
875,31	1210,14
875,48	1217,93
875,65	1163,86
875,82	1192,84
875,99	1171,23
876,16	1173,38
876,33	1160,89
876,50	1118,50
876,67	1162,73
876,83	1151,88
877,00	1118,40
877,17	1140,10
877,34	1140,10
877,51	1140,41
877,68	1134,68
877,85	1104,57
878,02	1117,37
878,19	1093,31
878,35	1123,82
878,52	1074,57
878,69	1106,42
878,86	1095,77
879,03	1069,24
879,20	1085,63
879,37	1069,24
879,54	1052,76
879,70	1072,21
879,87	1038,32
880,04	1065,05
880,21	1021,42
880,38	1027,88
880,55	1019,17
880,72	1030,95
880,89	1025,83
881,05	1043,34
881,22	978,42
881,39	1001,05
881,56	1006,99
881,73	973,50
881,90	1001,25
882,06	993,98
882,23	985,58
882,40	969,92
882,57	999,20
882,74	1004,84
882,91	1000,13
883,07	968,79
883,24	978,42
883,41	982,41
883,58	952,72
883,75	948,31
883,92	950,67
884,08	924,35
884,25	934,18
884,42	948,72
884,59	948,11
884,76	960,91
884,92	942,58
885,09	972,48
885,26	931,01
885,43	919,54
885,60	933,16
885,76	914,62
885,93	927,53
886,10	901,31
886,27	893,43
886,44	887,28
886,60	894,76
886,77	843,87
886,94	857,59
887,11	872,13
887,28	829,73
887,44	859,02
887,61	871,21
887,78	842,12
887,95	844,89
888,12	839,97
888,28	830,96
888,45	858,30
888,62	833,83
888,79	822,57
888,95	821,13
889,12	811,00
889,29	822,26
889,46	821,03
889,62	834,96
889,79	813,76
889,96	805,06
890,13	781,30
890,29	819,29
890,46	820,31
890,63	787,44
890,80	780,99
890,96	778,13
891,13	765,74
891,30	776,18
891,47	745,26
891,63	763,59
891,80	771,88
891,97	773,93
892,14	730,41
892,30	761,13
892,47	729,90
892,64	737,99
892,80	758,87
892,97	719,96
893,14	723,65
893,31	726,41
893,47	681,77
893,64	723,24
893,81	666,41
893,97	655,86
894,14	677,06
>>>>>End Processed Spectral Data<<<<<
